Cu7PS6_R,
Wavelength (nm),%R
2000,18.87113571
1999.333008,18.8049736
1998.666016,18.69307137
1997.999023,18.77425385
1997.332031,18.99168396
1996.665039,18.759758
1995.998047,18.83073997
1995.331055,18.92137146
1994.66394,19.06688499
1993.996948,18.7960186
1993.329956,18.83761215
1992.662964,18.88080978
1991.995972,18.81798553
1991.328979,18.80929947
1990.661987,18.95347214
1989.994995,18.99254608
1989.328003,18.80821037
1988.661011,18.90117264
1987.994019,18.97117043
1987.327026,18.86989021
1986.660034,18.93851662
1985.993042,18.94050598
1985.32605,18.96320343
1984.659058,18.96011543
1983.991943,19.00332642
1983.324951,19.00668144
1982.657959,18.88156509
1981.990967,18.94187546
1981.323975,19.01761627
1980.656982,18.97543144
1979.98999,19.13531113
1979.322998,19.0589447
1978.656006,19.01838112
1977.989014,18.94710922
1977.322021,19.04654312
1976.655029,19.0547924
1975.988037,19.03167343
1975.321045,19.04944992
1974.654053,19.04282951
1973.987061,19.12282181
1973.319946,19.07325172
1972.652954,19.15428352
1971.985962,19.08328056
1971.31897,19.10227776
1970.651978,19.09616089
1969.984985,19.2553196
1969.317993,19.05652237
1968.651001,19.11250496
1967.984009,19.14328003
1967.317017,19.16727257
1966.650024,18.99050713
1965.983032,19.14265823
1965.31604,19.22359276
1964.649048,19.16080284
1963.982056,19.24275208
1963.314941,19.12300301
1962.647949,19.10849762
1961.980957,19.24676514
1961.313965,19.24736023
1960.646973,19.17767143
1959.97998,19.18541336
1959.312988,19.27668381
1958.645996,19.28863907
1957.979004,19.24384117
1957.312012,19.12200737
1956.64502,19.11994362
1955.978027,19.21087265
1955.311035,19.30625916
1954.644043,19.22289085
1953.977051,19.18980789
1953.310059,19.29659843
1952.642944,19.27699089
1951.975952,19.23689651
1951.30896,19.22027016
1950.641968,19.29145622
1949.974976,19.3099575
1949.307983,19.29846573
1948.640991,19.39030075
1947.973999,19.24577332
1947.307007,19.39446831
1946.640015,19.30789948
1945.973022,19.34169769
1945.30603,19.25117111
1944.639038,19.20989227
1943.972046,19.3187809
1943.305054,19.46408081
1942.637939,19.21311378
1941.970947,19.28909492
1941.303955,19.35778618
1940.636963,19.23178673
1939.969971,19.41455078
1939.302979,19.33492851
1938.635986,19.30238533
1937.968994,19.41614532
1937.302002,19.52002335
1936.63501,19.37738419
1935.968018,19.41055679
1935.301025,19.46204567
1934.634033,19.31635666
1933.967041,19.46513748
1933.300049,19.38486862
1932.633057,19.23492622
1931.965942,19.44142151
1931.29895,19.43474197
1930.631958,19.38576317
1929.964966,19.49289513
1929.297974,19.39511871
1928.630981,19.34552574
1927.963989,19.4902401
1927.296997,19.45045662
1926.630005,19.39512825
1925.963013,19.38065147
1925.296021,19.47091293
1924.629028,19.39476776
1923.962036,19.40400124
1923.295044,19.39351463
1922.628052,19.34797287
1921.96106,19.58045578
1921.293945,19.4735527
1920.626953,19.43119431
1919.959961,19.41173935
1919.292969,19.40969276
1918.625977,19.42147064
1917.958984,19.43169403
1917.291992,19.50785065
1916.625,19.41409111
1915.958008,19.47227097
1915.291016,19.52447891
1914.624023,19.45116043
1913.957031,19.4663372
1913.290039,19.43613815
1912.623047,19.55201149
1911.956055,19.51638794
1911.28894,19.54873466
1910.621948,19.5511837
1909.954956,19.55497742
1909.287964,19.44794273
1908.620972,19.55396461
1907.953979,19.5218277
1907.286987,19.43483162
1906.619995,19.48695564
1905.953003,19.41212845
1905.286011,19.60619545
1904.619019,19.55615616
1903.952026,19.47609901
1903.285034,19.65606308
1902.618042,19.53294373
1901.95105,19.56477928
1901.284058,19.48279953
1900.616943,19.5782547
1899.949951,19.61564064
1899.282959,19.49725342
1898.615967,19.55731964
1897.948975,19.51093483
1897.281982,19.53131294
1896.61499,19.57914543
1895.947998,19.53712463
1895.281006,19.57770157
1894.614014,19.62303352
1893.947021,19.5525341
1893.280029,19.66592598
1892.613037,19.57426071
1891.946045,19.58546257
1891.279053,19.56015587
1890.612061,19.57309341
1889.944946,19.67141533
1889.277954,19.60066032
1888.610962,19.63793182
1887.94397,19.74496841
1887.276978,19.58783722
1886.609985,19.64795113
1885.942993,19.67457771
1885.276001,19.64871788
1884.609009,19.57993126
1883.942017,19.66975403
1883.275024,19.69989014
1882.608032,19.6548233
1881.94104,19.60808182
1881.274048,19.62583923
1880.607056,19.67307472
1879.939941,19.61768341
1879.272949,19.65062332
1878.605957,19.6711216
1877.938965,19.64349365
1877.271973,19.61210632
1876.60498,19.71528435
1875.937988,19.60121536
1875.270996,19.56930351
1874.604004,19.58794403
1873.937012,19.67916107
1873.27002,19.77391243
1872.603027,19.74126625
1871.936035,19.72073174
1871.269043,19.64026642
1870.602051,19.64674187
1869.935059,19.76586914
1869.267944,19.757658
1868.600952,19.68951607
1867.93396,19.73078537
1867.266968,19.69908142
1866.599976,19.77563286
1865.932983,19.82625389
1865.265991,19.65426826
1864.598999,19.69768143
1863.932007,19.70142937
1863.265015,19.7033844
1862.598022,19.80257988
1861.93103,19.73320961
1861.264038,19.75835037
1860.597046,19.81174278
1859.930054,19.84442711
1859.263062,19.78830719
1858.595947,19.7244873
1857.928955,19.89917946
1857.261963,19.77018929
1856.594971,19.77865601
1855.927979,19.75188637
1855.260986,19.85041618
1854.593994,19.87961388
1853.927002,19.78155136
1853.26001,19.8576355
1852.593018,19.82351303
1851.926025,19.91658783
1851.259033,19.84795189
1850.592041,19.82923508
1849.925049,19.90818214
1849.258057,19.86383438
1848.590942,19.90432549
1847.92395,19.90194893
1847.256958,19.91832924
1846.589966,19.87386322
1845.922974,19.90857887
1845.255981,19.87234116
1844.588989,19.82345581
1843.921997,19.94174194
1843.255005,19.94096756
1842.588013,19.86709595
1841.921021,19.92075348
1841.254028,19.97071838
1840.587036,19.89037323
1839.920044,19.97846603
1839.253052,19.91443062
1838.58606,19.95036697
1837.918945,20.0617733
1837.251953,20.03232765
1836.584961,19.98011398
1835.917969,20.0076313
1835.250977,20.00528336
1834.583984,20.01538277
1833.916992,20.00827789
1833.25,19.9973278
1832.583008,19.99824524
1831.916016,20.04929924
1831.249023,20.02501869
1830.582031,20.00091934
1829.915039,20.02908516
1829.248047,20.07583809
1828.581055,20.06187057
1827.91394,20.04677582
1827.246948,20.09456444
1826.579956,20.14764595
1825.912964,20.1607151
1825.245972,20.04466248
1824.578979,20.08785057
1823.911987,20.14646339
1823.244995,20.13616562
1822.578003,20.1291256
1821.911011,20.17211533
1821.244019,20.18314934
1820.577026,20.14036369
1819.910034,20.13687134
1819.243042,20.13698769
1818.57605,20.22726822
1817.909058,20.24274254
1817.241943,20.14242554
1816.574951,20.15811729
1815.907959,20.17648125
1815.240967,20.21200752
1814.573975,20.24530792
1813.906982,20.29154396
1813.23999,20.22924614
1812.572998,20.20963669
1811.906006,20.27935028
1811.239014,20.27637863
1810.572021,20.28864861
1809.905029,20.29455948
1809.238037,20.27364731
1808.571045,20.28358459
1807.904053,20.29823112
1807.237061,20.3106308
1806.569946,20.29251099
1805.902954,20.25503731
1805.235962,20.36781693
1804.56897,20.32912064
1803.901978,20.36392593
1803.234985,20.39092445
1802.567993,20.358778
1801.901001,20.34972572
1801.234009,20.37470245
1800.567017,20.32745171
1799.900024,20.35064316
1799.233032,20.33902168
1798.56604,20.38840485
1797.899048,20.39383507
1797.232056,20.43571091
1796.564941,20.40903473
1795.897949,20.42760849
1795.230957,20.45133972
1794.563965,20.42317772
1793.896973,20.44308853
1793.22998,20.42776871
1792.562988,20.40869331
1791.895996,20.46223068
1791.229004,20.48663521
1790.562012,20.45098305
1789.89502,20.46173477
1789.228027,20.51246262
1788.561035,20.47407913
1787.894043,20.48125839
1787.227051,20.51097107
1786.560059,20.46430779
1785.892944,20.48781586
1785.225952,20.50242043
1784.55896,20.49924469
1783.891968,20.5466423
1783.224976,20.48485374
1782.557983,20.51788139
1781.890991,20.5528698
1781.223999,20.5755024
1780.557007,20.56017303
1779.890015,20.55122185
1779.223022,20.55387115
1778.55603,20.57953835
1777.889038,20.56946373
1777.222046,20.57686234
1776.555054,20.59677505
1775.888062,20.62663078
1775.220947,20.60644531
1774.553955,20.64357758
1773.886963,20.58810234
1773.219971,20.64358521
1772.552979,20.6476841
1771.885986,20.65104294
1771.218994,20.63757324
1770.552002,20.59734726
1769.88501,20.66185951
1769.218018,20.67581367
1768.551025,20.640131
1767.884033,20.64993477
1767.217041,20.66765785
1766.550049,20.66021538
1765.883057,20.69045067
1765.215942,20.6828289
1764.54895,20.68533134
1763.881958,20.67897224
1763.214966,20.66103363
1762.547974,20.72613907
1761.880981,20.69660187
1761.213989,20.75603676
1760.546997,20.71469879
1759.880005,20.73566437
1759.213013,20.72986794
1758.546021,20.69790077
1757.879028,20.7598381
1757.212036,20.74966049
1756.545044,20.73730469
1755.878052,20.73964882
1755.21106,20.77036667
1754.543945,20.74359894
1753.876953,20.76914406
1753.209961,20.76269913
1752.542969,20.78000069
1751.875977,20.7667141
1751.208984,20.80969048
1750.541992,20.77765656
1749.875,20.76367378
1749.208008,20.81650734
1748.541016,20.80984497
1747.874023,20.79793739
1747.207031,20.79585838
1746.540039,20.8035183
1745.873047,20.83322716
1745.206055,20.82594872
1744.539063,20.84615326
1743.871948,20.81285477
1743.204956,20.8348732
1742.537964,20.85163498
1741.870972,20.82692719
1741.203979,20.85108566
1740.536987,20.82579231
1739.869995,20.91563797
1739.203003,20.8603878
1738.536011,20.88191795
1737.869019,20.87742805
1737.202026,20.86254311
1736.535034,20.89735413
1735.868042,20.88209343
1735.20105,20.89182091
1734.534058,20.89574623
1733.866943,20.91827774
1733.199951,20.92256927
1732.532959,20.93714333
1731.865967,20.93161583
1731.198975,20.92733574
1730.531982,20.94360924
1729.86499,20.96435928
1729.197998,20.93371582
1728.531006,20.9195652
1727.864014,20.92488289
1727.197021,20.95459175
1726.530029,20.97158241
1725.863037,20.99957848
1725.196045,20.96629524
1724.529053,20.99640846
1723.862061,21.01562119
1723.194946,21.01443863
1722.527954,21.00312233
1721.860962,20.99888039
1721.19397,21.02285385
1720.526978,21.02359962
1719.859985,21.02112389
1719.192993,21.05610657
1718.526001,21.03489113
1717.859009,21.02197647
1717.192017,21.05334473
1716.525024,21.04273033
1715.858032,21.04683876
1715.19104,21.09857178
1714.524048,21.09128761
1713.857056,21.05376816
1713.189941,21.06791878
1712.522949,21.11491585
1711.855957,21.11299133
1711.188965,21.09840012
1710.521973,21.0880661
1709.85498,21.08056068
1709.187988,21.12156296
1708.520996,21.10720634
1707.854004,21.14923477
1707.187012,21.16648483
1706.52002,21.15826607
1705.853027,21.15439987
1705.186035,21.12980843
1704.519043,21.15014076
1703.852051,21.16895676
1703.185059,21.14017677
1702.517944,21.12794304
1701.850952,21.19241714
1701.18396,21.18793488
1700.516968,21.15326309
1699.849976,21.15441322
1699.182983,21.17780495
1698.515991,21.21873283
1697.848999,21.1919632
1697.182007,21.17994499
1696.515015,21.23428345
1695.848022,21.2104454
1695.18103,21.2056694
1694.514038,21.22831726
1693.847046,21.22961617
1693.180054,21.21256828
1692.513062,21.24351883
1691.845947,21.25323296
1691.178955,21.27997398
1690.511963,21.26908684
1689.844971,21.25427437
1689.177979,21.26747894
1688.510986,21.27260399
1687.843994,21.29793549
1687.177002,21.29050255
1686.51001,21.30662918
1685.843018,21.27968597
1685.176025,21.31188965
1684.509033,21.31928635
1683.842041,21.31686783
1683.175049,21.34137726
1682.508057,21.32275009
1681.840942,21.32057953
1681.17395,21.33893204
1680.506958,21.37017632
1679.839966,21.35885048
1679.172974,21.33831406
1678.505981,21.37520599
1677.838989,21.37817383
1677.171997,21.37426376
1676.505005,21.35702133
1675.838013,21.37920189
1675.171021,21.39711189
1674.504028,21.41542244
1673.837036,21.39219666
1673.170044,21.38796425
1672.503052,21.40915298
1671.83606,21.42744637
1671.168945,21.45154572
1670.501953,21.4410553
1669.834961,21.4304142
1669.167969,21.4497261
1668.500977,21.46774292
1667.833984,21.45436859
1667.166992,21.46867371
1666.5,21.44957542
1665.833008,21.45471191
1665.166016,21.46694756
1664.499023,21.46496582
1663.832031,21.49099922
1663.165039,21.4795742
1662.498047,21.52148819
1661.831055,21.5046978
1661.164063,21.51021194
1660.496948,21.52713776
1659.829956,21.53807068
1659.162964,21.51163292
1658.495972,21.54206276
1657.828979,21.54710007
1657.161987,21.52680206
1656.494995,21.55393219
1655.828003,21.55165291
1655.161011,21.56053543
1654.494019,21.58965111
1653.827026,21.56326103
1653.160034,21.58601952
1652.493042,21.58640862
1651.82605,21.59926987
1651.159058,21.57487679
1650.491943,21.60820198
1649.824951,21.60429573
1649.157959,21.64641762
1648.490967,21.63130188
1647.823975,21.62227249
1647.156982,21.62590408
1646.48999,21.63520813
1645.822998,21.66666603
1645.156006,21.64276505
1644.489014,21.64046097
1643.822021,21.67106819
1643.155029,21.67672157
1642.488037,21.6744709
1641.821045,21.68056107
1641.154053,21.69516754
1640.487061,21.7184639
1639.819946,21.68873596
1639.152954,21.70377159
1638.485962,21.72311211
1637.81897,21.70676231
1637.151978,21.71889305
1636.484985,21.74814796
1635.817993,21.71174049
1635.151001,21.72968102
1634.484009,21.74775696
1633.817017,21.7729454
1633.150024,21.75851059
1632.483032,21.75359917
1631.81604,21.77219582
1631.149048,21.77914047
1630.482056,21.78068542
1629.814941,21.7778511
1629.147949,21.78043365
1628.480957,21.80450439
1627.813965,21.81795883
1627.146973,21.82333755
1626.47998,21.78663826
1625.812988,21.81058884
1625.145996,21.82699585
1624.479004,21.84025574
1623.812012,21.82135391
1623.14502,21.85835075
1622.478027,21.85811806
1621.811035,21.86586952
1621.144043,21.85540009
1620.477051,21.87140465
1619.810059,21.85560799
1619.142944,21.8677578
1618.475952,21.86828995
1617.80896,21.88242722
1617.141968,21.88924599
1616.474976,21.89155579
1615.807983,21.89914703
1615.140991,21.91527176
1614.473999,21.91605759
1613.807007,21.92412949
1613.140015,21.93944931
1612.473022,21.92381096
1611.80603,21.93202019
1611.139038,21.93557549
1610.472046,21.93725204
1609.805054,21.9473896
1609.138062,21.9698143
1608.470947,21.98933601
1607.803955,21.97931862
1607.136963,21.98083496
1606.469971,21.99890709
1605.802979,21.99868774
1605.135986,21.98932076
1604.468994,21.99321747
1603.802002,22.01387215
1603.13501,22.01329041
1602.468018,21.99388885
1601.801025,22.02793503
1601.134033,22.04214287
1600.467041,22.03435516
1599.800049,22.02500916
1599.133057,22.04282951
1598.465942,22.03895569
1597.79895,22.05041885
1597.131958,22.06714821
1596.464966,22.07916832
1595.797974,22.0867157
1595.130981,22.05190468
1594.463989,22.08831024
1593.796997,22.08873749
1593.130005,22.08395004
1592.463013,22.11307526
1591.796021,22.11300278
1591.129028,22.10189438
1590.462036,22.11914063
1589.795044,22.1314373
1589.128052,22.11682129
1588.46106,22.13274574
1587.793945,22.13203812
1587.126953,22.14571762
1586.459961,22.15466881
1585.792969,22.16610146
1585.125977,22.15456772
1584.458984,22.15789032
1583.791992,22.17410469
1583.125,22.17385864
1582.458008,22.17665863
1581.791016,22.19847679
1581.124023,22.19524574
1580.457031,22.19373512
1579.790039,22.20939064
1579.123047,22.21246338
1578.456055,22.22195053
1577.789063,22.23690224
1577.121948,22.25215912
1576.454956,22.22392082
1575.787964,22.25312996
1575.120972,22.24403191
1574.453979,22.23993111
1573.786987,22.27369118
1573.119995,22.25130272
1572.453003,22.2616272
1571.786011,22.2769928
1571.119019,22.28245354
1570.452026,22.28728294
1569.785034,22.28946304
1569.118042,22.30693245
1568.45105,22.32209396
1567.784058,22.30260468
1567.116943,22.30376625
1566.449951,22.32494926
1565.782959,22.31695938
1565.115967,22.33301163
1564.448975,22.3519249
1563.781982,22.33215332
1563.11499,22.3349247
1562.447998,22.36774063
1561.781006,22.3431015
1561.114014,22.37240982
1560.447021,22.36743546
1559.780029,22.3890934
1559.113037,22.38134766
1558.446045,22.37204552
1557.779053,22.40168571
1557.112061,22.41642761
1556.444946,22.39761734
1555.777954,22.396492
1555.110962,22.39898491
1554.44397,22.42305946
1553.776978,22.42090797
1553.109985,22.43750572
1552.442993,22.44218636
1551.776001,22.43515205
1551.109009,22.44581223
1550.442017,22.4482708
1549.775024,22.45238304
1549.108032,22.46313667
1548.44104,22.4790287
1547.774048,22.48047066
1547.107056,22.47097015
1546.440063,22.49353027
1545.772949,22.49653244
1545.105957,22.4985733
1544.438965,22.50502586
1543.771973,22.51660538
1543.10498,22.50382996
1542.437988,22.50965309
1541.770996,22.51362419
1541.104004,22.53365326
1540.437012,22.53202438
1539.77002,22.53203773
1539.103027,22.55723953
1538.436035,22.57395554
1537.769043,22.55834579
1537.102051,22.57013893
1536.435059,22.57623482
1535.767944,22.58049202
1535.100952,22.57377243
1534.43396,22.59127617
1533.766968,22.58721161
1533.099976,22.60581779
1532.432983,22.60899925
1531.765991,22.6023159
1531.098999,22.6333847
1530.432007,22.61181831
1529.765015,22.62258911
1529.098022,22.63324356
1528.43103,22.63507843
1527.764038,22.65815735
1527.097046,22.65136909
1526.430054,22.63720512
1525.763062,22.64735222
1525.095947,22.67628098
1524.428955,22.66126251
1523.761963,22.68173409
1523.094971,22.69631767
1522.427979,22.68914986
1521.760986,22.67020035
1521.093994,22.69475174
1520.427002,22.70342064
1519.76001,22.70042992
1519.093018,22.72577667
1518.426025,22.72061729
1517.759033,22.73117638
1517.092041,22.73797607
1516.425049,22.72979355
1515.758057,22.74112129
1515.090942,22.73024559
1514.42395,22.75774574
1513.756958,22.76700974
1513.089966,22.77445412
1512.422974,22.74028015
1511.755981,22.77201653
1511.088989,22.78218079
1510.421997,22.78808022
1509.755005,22.78581429
1509.088013,22.80586052
1508.421021,22.81319427
1507.754028,22.79961014
1507.087036,22.80810547
1506.420044,22.82172585
1505.753052,22.82136726
1505.08606,22.82964897
1504.418945,22.8197155
1503.751953,22.84277153
1503.084961,22.84361649
1502.417969,22.85004616
1501.750977,22.85765457
1501.083984,22.86129379
1500.416992,22.87094116
1499.75,22.87651825
1499.083008,22.87644005
1498.416016,22.88976097
1497.749023,22.87219048
1497.082031,22.89580917
1496.415039,22.89474678
1495.748047,22.9033432
1495.081055,22.89409256
1494.414063,22.91115189
1493.746948,22.92920685
1493.079956,22.92926216
1492.412964,22.92362404
1491.745972,22.91993332
1491.078979,22.93791389
1490.411987,22.9498806
1489.744995,22.96570778
1489.078003,22.94964981
1488.411011,22.96054268
1487.744019,22.95454025
1487.077026,22.98704338
1486.410034,22.9782238
1485.743042,22.97396278
1485.07605,22.97387505
1484.409058,22.98498535
1483.741943,23.01691437
1483.074951,23.00905991
1482.407959,23.00403786
1481.740967,23.01832199
1481.073975,23.01177788
1480.406982,23.0206871
1479.73999,23.02985382
1479.072998,23.03229523
1478.406006,23.04018211
1477.739014,23.04702759
1477.072021,23.04443932
1476.405029,23.04118729
1475.738037,23.05588341
1475.071045,23.07031059
1474.404053,23.07626915
1473.737061,23.07648087
1473.069946,23.08255577
1472.402954,23.09213638
1471.735962,23.11648369
1471.06897,23.09352684
1470.401978,23.11365128
1469.734985,23.11603355
1469.067993,23.10527039
1468.401001,23.11499214
1467.734009,23.1133728
1467.067017,23.12221718
1466.400024,23.1345787
1465.733032,23.1390419
1465.06604,23.15016174
1464.399048,23.17126465
1463.732056,23.13337708
1463.065063,23.1472683
1462.397949,23.1584816
1461.730957,23.17202187
1461.063965,23.1812706
1460.396973,23.16703415
1459.72998,23.18504524
1459.062988,23.1825695
1458.395996,23.18461609
1457.729004,23.19069672
1457.062012,23.19767952
1456.39502,23.21068001
1455.728027,23.20409966
1455.061035,23.22339058
1454.394043,23.21445847
1453.727051,23.2196064
1453.060059,23.22443199
1452.392944,23.23460388
1451.725952,23.24189949
1451.05896,23.24492264
1450.391968,23.24495697
1449.724976,23.24778557
1449.057983,23.25880241
1448.390991,23.25284576
1447.723999,23.27871132
1447.057007,23.27166557
1446.390015,23.27074814
1445.723022,23.27985382
1445.05603,23.27299309
1444.389038,23.28786469
1443.722046,23.30080414
1443.055054,23.29460526
1442.388062,23.28588295
1441.720947,23.30035782
1441.053955,23.31468964
1440.386963,23.31550407
1439.719971,23.31287956
1439.052979,23.31277657
1438.385986,23.32304955
1437.718994,23.32740784
1437.052002,23.33664131
1436.38501,23.34035492
1435.718018,23.33918762
1435.051025,23.33912468
1434.384033,23.34092712
1433.717041,23.35799408
1433.050049,23.37175941
1432.383057,23.35613632
1431.716064,23.36696243
1431.04895,23.36480713
1430.381958,23.37023926
1429.714966,23.38136292
1429.047974,23.37320137
1428.380981,23.38598824
1427.713989,23.38006592
1427.046997,23.38464546
1426.380005,23.38754082
1425.713013,23.39529419
1425.046021,23.39183998
1424.379028,23.4002018
1423.712036,23.39882469
1423.045044,23.40594673
1422.378052,23.40581512
1421.71106,23.40198898
1421.043945,23.41605377
1420.376953,23.39849663
1419.709961,23.41754341
1419.042969,23.40818214
1418.375977,23.42430878
1417.708984,23.42798042
1417.041992,23.42850304
1416.375,23.42161751
1415.708008,23.43543816
1415.041016,23.42916489
1414.374023,23.43554497
1413.707031,23.42021942
1413.040039,23.45058441
1412.373047,23.43928909
1411.706055,23.43531609
1411.039063,23.44415092
1410.371948,23.46139336
1409.704956,23.45173264
1409.037964,23.46895409
1408.370972,23.44689941
1407.703979,23.47376442
1407.036987,23.45116425
1406.369995,23.47799492
1405.703003,23.47574997
1405.036011,23.48178101
1404.369019,23.49748039
1403.702026,23.48191261
1403.035034,23.49880409
1402.368042,23.50939941
1401.70105,23.50699806
1401.034058,23.4961319
1400.366943,23.49474716
1399.699951,23.50178528
1399.032959,23.49076462
1398.365967,23.51298332
1397.698975,23.51818466
1397.031982,23.52556229
1396.36499,23.52476692
1395.697998,23.51951599
1395.031006,23.52978516
1394.364014,23.53738785
1393.697021,23.54132462
1393.030029,23.55666733
1392.363037,23.5620575
1391.696045,23.56191063
1391.029053,23.56330109
1390.362061,23.57216263
1389.694946,23.58573532
1389.027954,23.57898903
1388.360962,23.5885582
1387.69397,23.58432007
1387.026978,23.59339523
1386.359985,23.59065247
1385.692993,23.59056664
1385.026001,23.60804176
1384.359009,23.61766624
1383.692017,23.62511063
1383.025024,23.61004257
1382.358032,23.61442184
1381.69104,23.62446976
1381.024048,23.63557243
1380.357056,23.63269997
1379.690063,23.62114143
1379.022949,23.64815331
1378.355957,23.64170456
1377.688965,23.63871002
1377.021973,23.67317772
1376.35498,23.65431786
1375.687988,23.66375542
1375.020996,23.67760468
1374.354004,23.67913055
1373.687012,23.67401505
1373.02002,23.67626953
1372.353027,23.67591667
1371.686035,23.68795776
1371.019043,23.69386101
1370.352051,23.69952583
1369.685059,23.72193909
1369.017944,23.72153091
1368.350952,23.74257088
1367.68396,23.74364281
1367.016968,23.74200249
1366.349976,23.73530388
1365.682983,23.7720623
1365.015991,23.78742981
1364.348999,23.78617287
1363.682007,23.80413055
1363.015015,23.82139015
1362.348022,23.81464958
1361.68103,23.81917953
1361.014038,23.86403656
1360.347046,23.86833763
1359.680054,23.86661339
1359.013062,23.88015366
1358.345947,23.89820099
1357.678955,23.90867615
1357.011963,23.9048233
1356.344971,23.92875671
1355.677979,23.94468117
1355.010986,23.93230629
1354.343994,23.96081924
1353.677002,23.95303917
1353.01001,23.97354317
1352.343018,23.97396469
1351.676025,23.9787674
1351.009033,23.98584557
1350.342041,23.99884415
1349.675049,23.99415588
1349.008057,24.00149155
1348.341064,23.99869919
1347.67395,24.00379181
1347.006958,24.01744843
1346.339966,24.02148438
1345.672974,24.02005959
1345.005981,24.0189209
1344.338989,24.02041626
1343.671997,24.02243233
1343.005005,24.03939629
1342.338013,24.03355598
1341.671021,24.03306007
1341.004028,24.03185654
1340.337036,24.03668976
1339.670044,24.03321075
1339.003052,24.03834343
1338.33606,24.04681206
1337.668945,24.03960609
1337.001953,24.05181313
1336.334961,24.04852867
1335.667969,24.05356026
1335.000977,24.07527351
1334.333984,24.07033157
1333.666992,24.05205917
1333,24.07125092
1332.333008,24.08407402
1331.666016,24.07023048
1330.999023,24.0711174
1330.332031,24.09993172
1329.665039,24.08190155
1328.998047,24.08148956
1328.331055,24.09940529
1327.664063,24.10479355
1326.996948,24.09059715
1326.329956,24.11351585
1325.662964,24.11919022
1324.995972,24.1150589
1324.328979,24.11531258
1323.661987,24.11312294
1322.994995,24.12491989
1322.328003,24.12748146
1321.661011,24.13816833
1320.994019,24.1376915
1320.327026,24.11908722
1319.660034,24.14539146
1318.993042,24.15429878
1318.32605,24.14785385
1317.659058,24.15717125
1316.991943,24.16531754
1316.324951,24.17649841
1315.657959,24.17320251
1314.990967,24.1752491
1314.323975,24.17914009
1313.656982,24.19831467
1312.98999,24.18946838
1312.322998,24.19158554
1311.656006,24.20098686
1310.989014,24.20914459
1310.322021,24.20661354
1309.655029,24.21676445
1308.988037,24.22284317
1308.321045,24.22178459
1307.654053,24.22740555
1306.987061,24.24326706
1306.319946,24.23991776
1305.652954,24.24776649
1304.985962,24.24649048
1304.31897,24.25825882
1303.651978,24.25598717
1302.984985,24.25382805
1302.317993,24.27396011
1301.651001,24.27884102
1300.984009,24.28261375
1300.317017,24.28118134
1299.650024,24.279953
1298.983032,24.29357529
1298.31604,24.28115845
1297.649048,24.29538155
1296.982056,24.30099487
1296.315063,24.29944611
1295.647949,24.31527519
1294.980957,24.31304169
1294.313965,24.30547523
1293.646973,24.31933212
1292.97998,24.33096695
1292.312988,24.32027245
1291.645996,24.33501053
1290.979004,24.33571434
1290.312012,24.33921814
1289.64502,24.33215714
1288.978027,24.3458786
1288.311035,24.35613632
1287.644043,24.35410309
1286.977051,24.35068703
1286.310059,24.36440277
1285.642944,24.36706161
1284.975952,24.36116219
1284.30896,24.3663063
1283.641968,24.38243103
1282.974976,24.38177109
1282.307983,24.38424301
1281.640991,24.38491249
1280.973999,24.36683273
1280.307007,24.3907032
1279.640015,24.39311981
1278.973022,24.38353729
1278.30603,24.39522552
1277.639038,24.39777756
1276.972046,24.39656639
1276.305054,24.41434288
1275.638062,24.40384102
1274.970947,24.39609146
1274.303955,24.4175415
1273.636963,24.41994858
1272.969971,24.40901947
1272.302979,24.41270447
1271.635986,24.43414497
1270.968994,24.42398071
1270.302002,24.41026306
1269.63501,24.42132568
1268.968018,24.4242363
1268.301025,24.42407227
1267.634033,24.43929672
1266.967041,24.44420052
1266.300049,24.43499184
1265.633057,24.43889236
1264.966064,24.44694519
1264.29895,24.45096588
1263.631958,24.44366455
1262.964966,24.44995499
1262.297974,24.45987129
1261.630981,24.44842529
1260.963989,24.46300888
1260.296997,24.46059036
1259.630005,24.46941948
1258.963013,24.44939423
1258.296021,24.46263504
1257.629028,24.46286011
1256.962036,24.47089386
1256.295044,24.46714592
1255.628052,24.47018433
1254.96106,24.47635841
1254.293945,24.48237991
1253.626953,24.47594643
1252.959961,24.48989105
1252.292969,24.47841644
1251.625977,24.48354721
1250.958984,24.48843575
1250.291992,24.48536682
1249.625,24.49763489
1248.958008,24.49901581
1248.291016,24.50463867
1247.624023,24.49405098
1246.957031,24.49856758
1246.290039,24.50503922
1245.623047,24.50513268
1244.956055,24.50189972
1244.289063,24.52157211
1243.621948,24.50896072
1242.954956,24.52348137
1242.287964,24.50784683
1241.620972,24.52100945
1240.953979,24.51970291
1240.286987,24.51008034
1239.619995,24.52732658
1238.953003,24.53070068
1238.286011,24.52666283
1237.619019,24.53780937
1236.952026,24.53233528
1236.285034,24.53336525
1235.618042,24.54125214
1234.95105,24.5410614
1234.284058,24.53972435
1233.617065,24.53818703
1232.949951,24.5436306
1232.282959,24.54966164
1231.615967,24.55529404
1230.948975,24.55160904
1230.281982,24.55272484
1229.61499,24.55860329
1228.947998,24.55393982
1228.281006,24.56275749
1227.614014,24.56301117
1226.947021,24.56754112
1226.280029,24.57063866
1225.613037,24.5682373
1224.946045,24.56804276
1224.279053,24.56116676
1223.612061,24.57351303
1222.944946,24.57722473
1222.277954,24.57373047
1221.610962,24.57708549
1220.94397,24.57001877
1220.276978,24.58719635
1219.609985,24.5804863
1218.942993,24.59318542
1218.276001,24.59541321
1217.609009,24.5803051
1216.942017,24.59384918
1216.275024,24.5928669
1215.608032,24.59069633
1214.94104,24.58819389
1214.274048,24.60561752
1213.607056,24.60049629
1212.940063,24.58974266
1212.272949,24.60331535
1211.605957,24.60909271
1210.938965,24.58809853
1210.271973,24.61224556
1209.60498,24.61430931
1208.937988,24.60312462
1208.270996,24.60984802
1207.604004,24.6080513
1206.937012,24.6272049
1206.27002,24.62138939
1205.603027,24.61138535
1204.936035,24.61780548
1204.269043,24.61199951
1203.602051,24.62688637
1202.935059,24.63543701
1202.267944,24.61772919
1201.600952,24.62023926
1200.93396,24.64212227
1200.266968,24.64487839
1199.599976,24.63214493
1198.932983,24.65894318
1198.265991,24.67854309
1197.598999,24.68021011
1196.932007,24.68256187
1196.265015,24.69610023
1195.598022,24.6795063
1194.93103,24.6957283
1194.264038,24.68865967
1193.597046,24.69440842
1192.930054,24.6980896
1192.263062,24.68896103
1191.595947,24.69259262
1190.928955,24.6829052
1190.261963,24.69772911
1189.594971,24.69552803
1188.927979,24.70265388
1188.260986,24.69951439
1187.593994,24.69845009
1186.927002,24.7042141
1186.26001,24.70230484
1185.593018,24.7049427
1184.926025,24.7015686
1184.259033,24.70137405
1183.592041,24.70798874
1182.925049,24.70253372
1182.258057,24.70388412
1181.591064,24.70690918
1180.92395,24.70871925
1180.256958,24.71807861
1179.589966,24.71819305
1178.922974,24.711586
1178.255981,24.70534897
1177.588989,24.71454048
1176.921997,24.71766853
1176.255005,24.71758842
1175.588013,24.71728134
1174.921021,24.71901321
1174.254028,24.70727921
1173.587036,24.72181129
1172.920044,24.70811653
1172.253052,24.7230072
1171.58606,24.72051239
1170.918945,24.71568489
1170.251953,24.71835136
1169.584961,24.71087646
1168.917969,24.72148132
1168.250977,24.72382927
1167.583984,24.71119499
1166.916992,24.71619606
1166.25,24.72185135
1165.583008,24.71629906
1164.916016,24.7150383
1164.249023,24.70868874
1163.582031,24.7064209
1162.915039,24.71025848
1162.248047,24.72067261
1161.581055,24.71984291
1160.914063,24.70565414
1160.246948,24.71611214
1159.579956,24.72523689
1158.912964,24.71512794
1158.245972,24.71710968
1157.578979,24.7149353
1156.911987,24.71715546
1156.244995,24.72317505
1155.578003,24.71169662
1154.911011,24.71724892
1154.244019,24.71750069
1153.577026,24.72729301
1152.910034,24.71636009
1152.243042,24.71192932
1151.57605,24.70091057
1150.909058,24.71803093
1150.242065,24.71625137
1149.574951,24.72350693
1148.907959,24.72109032
1148.240967,24.73094177
1147.573975,24.71884346
1146.906982,24.71765518
1146.23999,24.71800041
1145.572998,24.71513557
1144.906006,24.72054863
1144.239014,24.71947861
1143.572021,24.72584915
1142.905029,24.72730255
1142.238037,24.72997284
1141.571045,24.71897697
1140.904053,24.72183609
1140.237061,24.72701263
1139.569946,24.72224808
1138.902954,24.72985077
1138.235962,24.72148132
1137.56897,24.7217083
1136.901978,24.7238903
1136.234985,24.72226906
1135.567993,24.72522354
1134.901001,24.72437859
1134.234009,24.7187252
1133.567017,24.7201252
1132.900024,24.73722458
1132.233032,24.72535896
1131.56604,24.72552109
1130.899048,24.72577095
1130.232056,24.73604965
1129.565063,24.71382904
1128.897949,24.73186111
1128.230957,24.74049759
1127.563965,24.73021698
1126.896973,24.74488258
1126.22998,24.74283218
1125.562988,24.7328701
1124.895996,24.74363708
1124.229004,24.74678993
1123.562012,24.73467255
1122.89502,24.74399567
1122.228027,24.73944283
1121.561035,24.74420738
1120.894043,24.7385273
1120.227051,24.75284576
1119.560059,24.7486763
1118.893066,24.7434597
1118.225952,24.74277115
1117.55896,24.75269699
1116.891968,24.74273682
1116.224976,24.73368645
1115.557983,24.74194717
1114.890991,24.74472618
1114.223999,24.74584389
1113.557007,24.73872757
1112.890015,24.73625374
1112.223022,24.72890854
1111.55603,24.72657013
1110.889038,24.738451
1110.222046,24.73038864
1109.555054,24.72588348
1108.888062,24.71681213
1108.220947,24.72309113
1107.553955,24.71373367
1106.886963,24.71039772
1106.219971,24.7140789
1105.552979,24.71120262
1104.885986,24.70500565
1104.218994,24.70441246
1103.552002,24.70829201
1102.88501,24.69518661
1102.218018,24.69365692
1101.551025,24.70098495
1100.884033,24.69534492
1100.217041,24.69361687
1099.550049,24.686409
1098.883057,24.69006538
1098.216064,24.67700195
1097.54895,24.68515968
1096.881958,24.68495941
1096.214966,24.68810463
1095.547974,24.68746185
1094.880981,24.68825912
1094.213989,24.68236923
1093.546997,24.67344666
1092.880005,24.65339088
1092.213013,24.68774414
1091.546021,24.66590691
1090.879028,24.67104149
1090.212036,24.66184616
1089.545044,24.66161346
1088.878052,24.67050934
1088.21106,24.66517639
1087.543945,24.65870285
1086.876953,24.65660858
1086.209961,24.65855789
1085.542969,24.65969086
1084.875977,24.65328217
1084.208984,24.66732597
1083.541992,24.64606857
1082.875,24.64748001
1082.208008,24.63878822
1081.541016,24.65208626
1080.874023,24.63424301
1080.207031,24.64554024
1079.540039,24.64054489
1078.873047,24.64431953
1078.206055,24.63528824
1077.539063,24.63960838
1076.871948,24.62710571
1076.204956,24.63969231
1075.537964,24.63372993
1074.870972,24.63875961
1074.203979,24.62442017
1073.536987,24.62838364
1072.869995,24.62785912
1072.203003,24.6229229
1071.536011,24.61330032
1070.869019,24.6071434
1070.202026,24.6179142
1069.535034,24.61778641
1068.868042,24.60388565
1068.20105,24.61696053
1067.534058,24.60720444
1066.867065,24.58504677
1066.199951,24.59369469
1065.532959,24.59355354
1064.865967,24.5848217
1064.198975,24.58800316
1063.531982,24.56912041
1062.86499,24.57508659
1062.197998,24.57347488
1061.531006,24.57102776
1060.864014,24.56131744
1060.197021,24.5435009
1059.530029,24.56100273
1058.863037,24.55064774
1058.196045,24.54677582
1057.529053,24.53996468
1056.862061,24.526968
1056.194946,24.53945541
1055.527954,24.53062439
1054.860962,24.51954269
1054.19397,24.52512741
1053.526978,24.51202202
1052.859985,24.51260757
1052.192993,24.49194336
1051.526001,24.5030632
1050.859009,24.48987961
1050.192017,24.49945641
1049.525024,24.48159027
1048.858032,24.4816494
1048.19104,24.48293495
1047.524048,24.45837402
1046.857056,24.45956993
1046.190063,24.45982933
1045.522949,24.44573021
1044.855957,24.44785309
1044.188965,24.44140244
1043.521973,24.43903542
1042.85498,24.43043518
1042.187988,24.42431831
1041.520996,24.42096138
1040.854004,24.40715218
1040.187012,24.40239334
1039.52002,24.40714645
1038.853027,24.39844894
1038.186035,24.39242363
1037.519043,24.38951302
1036.852051,24.37814522
1036.185059,24.36905861
1035.518066,24.36420441
1034.850952,24.36228561
1034.18396,24.37783623
1033.516968,24.34827805
1032.849976,24.333498
1032.182983,24.33917046
1031.515991,24.3270874
1030.848999,24.33314133
1030.182007,24.31422806
1029.515015,24.2990284
1028.848022,24.30188751
1028.18103,24.28528214
1027.514038,24.29209137
1026.847046,24.29236794
1026.180054,24.26589775
1025.513062,24.26457405
1024.845947,24.2619381
1024.178955,24.26021004
1023.512024,24.23671341
1022.845032,24.21302795
1022.177979,24.23423004
1021.510986,24.22589302
1020.843994,24.21031952
1020.177002,24.2085495
1019.51001,24.20121193
1018.843018,24.19487762
1018.176025,24.17645836
1017.509033,24.17852974
1016.84198,24.16811562
1016.174988,24.15732956
1015.507996,24.15795708
1014.841003,24.13964272
1014.174011,24.14065361
1013.507019,24.13158226
1012.840027,24.11714554
1012.173035,24.11915016
1011.505981,24.10327911
1010.838989,24.10401917
1010.171997,24.08843803
1009.505005,24.07846832
1008.838013,24.07258415
1008.171021,24.06173706
1007.504028,24.03979301
1006.837036,24.04735756
1006.169983,24.0382309
1005.502991,24.03422928
1004.835999,24.01991844
1004.169006,24.01347542
1003.502014,24.01124382
1002.835022,23.98514366
1002.16803,23.99197197
1001.500977,23.98374176
1000.833984,23.95988846
1000.166992,23.95627594
999.5,23.96099854
998.8330078,23.94987106
998.1660156,23.92061424
997.4990234,23.93829727
996.8320313,23.90873146
996.164978,23.91005516
995.4979858,23.89544296
994.8309937,23.88243675
994.1640015,23.87007904
993.4970093,23.87429428
992.8300171,23.8509922
992.1630249,23.84568787
991.4960327,23.8363266
990.8289795,23.83055687
990.1619873,23.80268097
989.4949951,23.81357956
988.8280029,23.80382156
988.1610107,23.7928009
987.4940186,23.78738785
986.8270264,23.7657814
986.1600342,23.76710701
985.492981,23.74091148
984.8259888,23.73484612
984.1589966,23.71506691
983.4920044,23.70952415
982.8250122,23.71196938
982.15802,23.69787025
981.4910278,23.67300224
980.8240356,23.65630722
980.1569824,23.65142822
979.4899902,23.627388
978.822998,23.63845253
978.1560059,23.63048363
977.4890137,23.59884071
976.8220215,23.60326576
976.1550293,23.57530785
975.4880371,23.56119537
974.8209839,23.56645775
974.1539917,23.55996895
973.4869995,23.53433609
972.8200073,23.53968239
972.1530151,23.51821899
971.4860229,23.50881767
970.8190308,23.4848175
970.1519775,23.48634529
969.4849854,23.45166016
968.8179932,23.44545746
968.151001,23.44006538
967.4840088,23.4144783
966.8170166,23.40999031
966.1500244,23.38236618
965.4830322,23.3692379
964.815979,23.34720993
964.1489868,23.34007263
963.4819946,23.31679153
962.8150024,23.31599998
962.1480103,23.31825256
961.4810181,23.27919006
960.8140259,23.26941109
960.1470337,23.25399399
959.4799805,23.25852585
958.8129883,23.23281097
958.1459961,23.229105
957.4790039,23.19574547
956.8120117,23.17713165
956.1450195,23.15813255
955.4780273,23.18231392
954.8110352,23.17032623
954.1439819,23.12007523
953.4769897,23.09784126
952.8099976,23.08688545
952.1430054,23.08183479
951.4760132,23.07582474
950.809021,23.04637718
950.1420288,23.04777527
949.4750366,23.02876472
948.8079834,23.00477982
948.1409912,23.0051136
947.473999,22.99180984
946.8070068,22.96832848
946.1400146,22.93859863
945.4730225,22.9447937
944.8060303,22.90997505
944.1389771,22.90986252
943.4719849,22.90184784
942.8049927,22.87469292
942.1380005,22.86081123
941.4710083,22.82843971
940.8040161,22.85424995
940.1370239,22.81941414
939.4700317,22.79158974
938.8029785,22.77651215
938.1359863,22.75837326
937.4689941,22.76348686
936.802002,22.71619797
936.1350098,22.70976639
935.4680176,22.68341637
934.8010254,22.71450233
934.1340332,22.66613197
933.46698,22.64018631
932.7999878,22.59491539
932.1329956,22.6210537
931.4660034,22.61716843
930.7990112,22.55434418
930.132019,22.57453537
929.4650269,22.55639076
928.7980347,22.53177452
928.1309814,22.51002312
927.4639893,22.4329834
926.7969971,22.45004082
926.1300049,22.48603821
925.4630127,22.41466141
924.7960205,22.39337349
924.1290283,22.3859272
923.4620361,22.36451912
922.7949829,22.36717606
922.1279907,22.35984612
921.4609985,22.28406334
920.7940063,22.30587769
920.1270142,22.25381088
919.460022,22.24167442
918.7930298,22.20722198
918.1259766,22.22449112
917.4589844,22.20978355
916.7919922,22.15674019
916.125,22.14056778
915.4580078,22.15225601
914.7910156,22.07102203
914.1240234,22.12874222
913.4570313,22.08905602
912.789978,22.06906128
912.1229858,22.09743881
911.4559937,22.05194664
910.7890015,21.96299744
910.1220093,21.98272133
909.4550171,21.94465065
908.7880249,21.95555496
908.1210327,21.85883141
907.4539795,21.91860771
906.7869873,21.90250587
906.1199951,21.86338615
905.4530029,21.8076458
904.7860107,21.86273193
904.1190186,21.76553535
903.4520264,21.77215004
902.7850342,21.76913452
902.117981,21.69313812
901.4509888,21.68877983
900.7839966,21.67224693
900.1170044,21.66022873
899.4500122,21.60655212
898.78302,21.35216713
898.1160278,21.95291138
897.4490356,22.53933525
896.7819824,21.66872978
896.1149902,21.2914505
895.447998,22.31986046
894.7810059,21.89962578
894.1140137,21.71785927
893.4470215,21.27439308
892.7800293,21.78719139
892.1130371,21.42664719
891.4459839,21.28024292
890.7789917,22.03548431
890.1119995,21.58993721
889.4450073,22.00442123
888.7780151,21.88595009
888.1110229,21.54573822
887.4440308,21.18793297
886.7769775,21.68897057
886.1099854,21.41613579
885.4429932,21.36443329
884.776001,21.16224861
884.1090088,21.38292694
883.4420166,20.91434097
882.7750244,21.0631237
882.1080322,21.10402298
881.440979,21.40260696
880.7739868,20.78076172
880.1069946,20.99507523
879.4400024,21.30407524
878.7730103,21.24176407
878.1060181,20.94480896
877.4390259,20.95122337
876.7720337,20.76084518
876.1049805,20.6016674
875.4379883,20.88974953
874.7709961,20.98526573
874.1040039,20.74057388
873.4370117,20.927948
872.7700195,20.74308014
872.1030273,20.74058533
871.4360352,20.87155914
870.7689819,20.79215431
870.1019897,20.74371719
869.4349976,20.60703659
868.7680054,20.78832245
868.1010132,20.5851059
867.434021,20.55950737
866.7670288,20.46383476
866.1000366,20.54843712
865.4329834,20.45797729
864.7659912,20.49556923
864.098999,20.52687836
863.4320068,20.50878334
862.7650146,20.37664986
862.0980225,20.27539825
861.4310303,20.38632584
860.7639771,20.22148323
860.0969849,20.23634148
859.4299927,20.25507164
858.7630005,20.25157166
858.0960083,20.14648247
857.4290161,20.044487
856.7620239,20.14629745
856.0950317,20.04880905
855.4279785,20.04499626
854.7609863,19.97255516
854.0939941,19.9694519
853.427002,19.94846344
852.7600098,19.83979607
852.0930176,19.83696365
851.4260254,19.85058403
850.7590332,19.82223892
850.09198,19.73840904
849.4249878,19.7302742
848.7579956,19.65665817
848.0910034,19.73410606
847.4240112,19.64178658
846.757019,19.63823891
846.0900269,19.56554031
845.4230347,19.47121429
844.7559814,19.58081627
844.0889893,19.46513748
843.4219971,19.47321129
842.7550049,19.38301849
842.0880127,19.40438843
841.4210205,19.30357933
840.7540283,19.31474876
840.0870361,19.21227264
839.4199829,19.25982285
838.7529907,19.20255852
838.0859985,19.1196022
837.4190063,19.14808273
836.7520142,19.07906914
836.085022,19.08350372
835.4180298,18.99201202
834.7510376,18.9638443
834.0839844,18.95058823
833.4169922,18.87499619
832.75,18.86779594
832.0830078,18.81171227
831.4160156,18.80274391
830.7490234,18.74128723
830.0820313,18.7369442
829.414978,18.69922066
828.7479858,18.662817
828.0809937,18.60093117
827.4140015,18.57476234
826.7470093,18.53811646
826.0800171,18.50536537
825.4130249,18.49291992
824.7460327,18.41217041
824.0789795,18.3966465
823.4119873,18.34589005
822.7449951,18.29901123
822.0780029,18.27987671
821.4110107,18.22644997
820.7440186,18.17386627
820.0770264,18.15968513
819.4100342,18.12678528
818.742981,18.0725441
818.0759888,18.04710197
817.4089966,18.01647186
816.7420044,17.96957588
816.0750122,17.90561676
815.40802,17.8709259
814.7410278,17.83246613
814.0740356,17.78065109
813.4069824,17.7512188
812.7399902,17.70516777
812.072998,17.66422844
811.4060059,17.6353817
810.7390137,17.5902729
810.0720215,17.57035637
809.4050293,17.5053978
808.7380371,17.46623611
808.0709839,17.41594315
807.4039917,17.40171814
806.7369995,17.35879898
806.0700073,17.29596519
805.4030151,17.26198959
804.7360229,17.20477867
804.0690308,17.17417908
803.4019775,17.12800026
802.7349854,17.10926056
802.0679932,17.05638695
801.401001,17.01366043
800.7340088,16.94891739
800.0670166,16.90819931
799.4000244,16.87213707
798.7330322,17.53753662
798.06604,17.57374382
797.3990479,17.53608322
796.7320557,17.50156975
796.0650024,17.45618248
795.3980103,17.35202408
794.7310181,17.35225677
794.0640259,17.33730507
793.3970337,17.28501511
792.7300415,17.26060486
792.0630493,17.20518684
791.3960571,17.13044548
790.7290039,17.09862328
790.0620117,17.06927681
789.3950195,17.05138779
788.7280273,17.02599907
788.0610352,16.98324585
787.394043,16.94573593
786.7270508,16.87458992
786.0600586,16.83732224
785.3930054,16.8137722
784.7260132,16.73923111
784.059021,16.69292831
783.3920288,16.66309166
782.7250366,16.63440132
782.0580444,16.61137199
781.3910522,16.5227108
780.7240601,16.44751167
780.0570068,16.41380501
779.3900146,16.39032745
778.7230225,16.36166
778.0560303,16.30351257
777.3890381,16.28495979
776.7220459,16.20296097
776.0550537,16.18065262
775.3880615,16.10864067
774.7210083,16.06328964
774.0540161,16.01831245
773.3870239,15.97988415
772.7200317,15.9459753
772.0530396,15.91405869
771.3860474,15.86302185
770.7190552,15.80339527
770.052002,15.77821255
769.3850098,15.70843124
768.7180176,15.67642403
768.0510254,15.63751221
767.3840332,15.5790329
766.717041,15.51686478
766.0500488,15.46311951
765.3830566,15.46001148
764.7160034,15.40243149
764.0490112,15.33154583
763.382019,15.27453232
762.7150269,15.26082802
762.0480347,15.19242096
761.3810425,15.11441898
760.7140503,15.07948303
760.0470581,15.07479286
759.3800049,14.99864197
758.7130127,14.96838665
758.0460205,14.90041447
757.3790283,14.86824417
756.7120361,14.81375122
756.0450439,14.76243114
755.3780518,14.71119404
754.7110596,14.65639591
754.0440063,14.6067915
753.3770142,14.56896973
752.710022,14.51440048
752.0430298,14.43726158
751.3760376,14.43641376
750.7090454,14.35816002
750.0420532,14.31400967
749.375061,14.24107838
748.7080078,14.20776272
748.0410156,14.18181038
747.3740234,14.11798
746.7070313,14.07301426
746.0400391,13.99689865
745.3730469,13.96339512
744.7060547,13.89239693
744.0390625,13.86446095
743.3720093,13.81181335
742.7050171,13.7473793
742.0380249,13.69625282
741.3710327,13.64108658
740.7040405,13.59459496
740.0370483,13.5510664
739.3700562,13.50129223
738.7030029,13.44403172
738.0360107,13.37978363
737.3690186,13.3347435
736.7020264,13.28678131
736.0350342,13.21312141
735.368042,13.18971252
734.7010498,13.11504269
734.0340576,13.08873463
733.3670044,13.01974392
732.7000122,12.95867825
732.03302,12.91692829
731.3660278,12.8622551
730.6990356,12.78588295
730.0320435,12.74152851
729.3650513,12.71904755
728.6980591,12.66454887
728.0310059,12.57535172
727.3640137,12.53231812
726.6970215,12.48892689
726.0300293,12.43423462
725.3630371,12.38674641
724.6960449,12.33758354
724.0290527,12.27523518
723.3620605,12.20953751
722.6950073,12.17706203
722.0280151,12.10792732
721.3610229,12.06778812
720.6940308,12.00842953
720.0270386,11.96186924
719.3600464,11.90369034
718.6930542,11.85440731
718.026062,11.81190491
717.3590088,11.75859165
716.6920166,11.70226479
716.0250244,11.63976669
715.3580322,11.59153271
714.69104,11.52154255
714.0240479,11.49011803
713.3570557,11.42900944
712.6900024,11.37404919
712.0230103,11.3353138
711.3560181,11.27237225
710.6890259,11.22111607
710.0220337,11.16273308
709.3550415,11.12911415
708.6880493,11.05964661
708.0210571,11.01137161
707.3540039,10.96188831
706.6870117,10.90984726
706.0200195,10.84314823
705.3530273,10.80445099
704.6860352,10.74320412
704.019043,10.70371628
703.3520508,10.66164494
702.6850586,10.60162926
702.0180054,10.56566429
701.3510132,10.50079918
700.684021,10.44108295
700.0170288,10.40446854
699.3500366,10.3479147
698.6830444,10.30481148
698.0160522,10.25157928
697.3490601,10.19634247
696.6820068,10.15135765
696.0150146,10.11085224
695.3480225,10.05996418
694.6810303,10.00362015
694.0140381,9.95430088
693.3470459,9.909547806
692.6800537,9.862336159
692.0130615,9.810344696
691.3460083,9.779665947
690.6790161,9.718686104
690.0120239,9.666283607
689.3450317,9.640867233
688.6780396,9.579433441
688.0110474,9.55169487
687.3440552,9.49245739
686.677063,9.454998016
686.0100098,9.414154053
685.3430176,9.355110168
684.6760254,9.323177338
684.0090332,9.26807785
683.342041,9.222604752
682.6750488,9.189476013
682.0080566,9.14604187
681.3410034,9.103149414
680.6740112,9.061175346
680.007019,9.015742302
679.3400269,8.972084999
678.6730347,8.930436134
678.0060425,8.892188072
677.3390503,8.856003761
676.6720581,8.810825348
676.0050049,8.77110672
675.3380127,8.736486435
674.6710205,8.69317627
674.0040283,8.655408859
673.3370361,8.615753174
672.6700439,8.574670792
672.0030518,8.54507637
671.3360596,8.495912552
670.6690063,8.461765289
670.0020142,8.42346859
669.335022,8.381178856
668.6680298,8.352192879
668.0010376,8.3139534
667.3340454,8.285660744
666.6670532,8.246326447
666.000061,8.205228806
665.3330078,8.180845261
664.6660156,8.140964508
663.9990234,8.107755661
663.3320313,8.074529648
662.6650391,8.045433044
661.9980469,8.024913788
661.3310547,7.980786324
660.6640625,7.946997643
659.9970093,7.912321568
659.3300171,7.888101101
658.6630249,7.860090733
657.9960327,7.827142715
657.3290405,7.797940731
656.6620483,7.774939537
655.9950562,7.744190693
655.3280029,7.721208096
654.6610107,7.686838627
653.9940186,7.664566994
653.3270264,7.636618614
652.6600342,7.622438431
651.993042,7.585653782
651.3260498,7.572286606
650.6590576,7.547582626
649.9920044,7.522042274
649.3250122,7.496465683
648.65802,7.475624084
647.9910278,7.459954262
647.3240356,7.438943386
646.6570435,7.412259102
645.9900513,7.399546146
645.3230591,7.378056526
644.6560059,7.370654583
643.9890137,7.346497536
643.3220215,7.336651325
642.6550293,7.316937923
641.9880371,7.30593586
641.3210449,7.28713131
640.6540527,7.279424191
639.9870605,7.26678133
639.3200073,7.25370121
638.6530151,7.238575935
637.9860229,7.234924316
637.3190308,7.217596531
636.6520386,7.202906132
635.9850464,7.206907749
635.3180542,7.196725368
634.651062,7.191195965
633.9840088,7.181177139
633.3170166,7.175906658
632.6500244,7.171194077
631.9830322,7.165466785
631.31604,7.168339729
630.6490479,7.154648781
629.9820557,7.155709743
629.3150635,7.159379005
628.6480103,7.151097298
627.9810181,7.149894714
627.3140259,7.149150848
626.6470337,7.147665977
625.9800415,7.148458958
625.3130493,7.145726681
624.6460571,7.149218082
623.9790039,7.151894093
623.3120117,7.158585072
622.6450195,7.154279709
621.9780273,7.157211781
621.3110352,7.164540291
620.644043,7.1682477
619.9770508,7.178526402
619.3100586,7.181432247
618.6430054,7.184865475
617.9760132,7.181443214
617.309021,7.194656372
616.6420288,7.200480938
615.9750366,7.201532364
615.3080444,7.220240593
614.6410522,7.222159386
613.9740601,7.229485989
613.3070068,7.241834641
612.6400146,7.25749445
611.9730225,7.263411045
611.3060303,7.267159462
610.6390381,7.274108887
609.9720459,7.292263985
609.3050537,7.29791975
608.6380615,7.312335014
607.9710083,7.3177495
607.3040161,7.337765217
606.6370239,7.345271111
605.9700317,7.360511303
605.3030396,7.368776798
604.6360474,7.387120247
603.9690552,7.395534992
603.302063,7.417053699
602.6350098,7.440175056
601.9680176,7.46033287
601.3010254,7.474760056
600.6340332,7.489746094
599.967041,7.510969639
599.3000488,7.533746719
598.6330566,7.555104733
597.9660034,7.575640678
597.2990112,7.60533905
596.632019,7.621082783
595.9650269,7.645870209
595.2980347,7.67377615
594.6310425,7.695754051
593.9640503,7.717671871
593.2970581,7.750569344
592.6300049,7.781682014
591.9630127,7.802108765
591.2960205,7.835385323
590.6290283,7.863980293
589.9620361,7.896379948
589.2950439,7.918260098
588.6280518,7.959368706
587.9610596,7.990464687
587.2940063,8.017798424
586.6270142,8.044442177
585.960022,8.079835892
585.2930298,8.112472534
584.6260376,8.146903992
583.9590454,8.177231789
583.2920532,8.218402863
582.625061,8.243232727
581.9580078,8.274432182
581.2910156,8.322741508
580.6240234,8.355034828
579.9570313,8.382142067
579.2900391,8.425732613
578.6230469,8.453507423
577.9560547,8.497348785
577.2890625,8.533679962
576.6220093,8.575008392
575.9550171,8.613513947
575.2880249,8.645253181
574.6210327,8.676678658
573.9540405,8.723205566
573.2870483,8.763272285
572.6200562,8.80739975
571.953064,8.835279465
571.2860107,8.887057304
570.6190186,8.929198265
569.9520264,8.969408035
569.2850342,9.00265789
568.618042,9.05871582
567.9510498,9.098833084
567.2840576,9.13121891
566.6170044,9.177129745
565.9500122,9.223679543
565.28302,9.270709038
564.6160278,9.309170723
563.9490356,9.365102768
563.2820435,9.408942223
562.6150513,9.447388649
561.9480591,9.500536919
561.2810059,9.550946236
560.6140137,9.589589119
559.9470215,9.639756203
559.2800293,9.685637474
558.6130371,9.742319107
557.9460449,9.78548336
557.2790527,9.831198692
556.6120605,9.887354851
555.9450073,9.933012009
555.2780151,9.986597061
554.6110229,10.040452
553.9440308,10.07893085
553.2770386,10.14749241
552.6100464,10.19146919
551.9430542,10.23689175
551.276062,10.28742695
550.6090088,10.34340954
549.9420166,10.39360046
549.2750244,10.45527554
548.6080322,10.49901009
547.94104,10.54985905
547.2740479,10.6020155
546.6070557,10.64644146
545.9400635,10.69335747
545.2730103,10.75876522
544.6060181,10.7935276
543.9390259,10.85490704
543.2720337,10.90635395
542.6050415,10.9627552
541.9380493,11.02062988
541.2710571,11.07042885
540.6040039,11.12655067
539.9370117,11.17695045
539.2700195,11.23709774
538.6030273,11.2864809
537.9360352,11.33841419
537.269043,11.39354324
536.6020508,11.4527874
535.9350586,11.50850582
535.2680054,11.56896782
534.6010132,11.61018372
533.934021,11.66282654
533.2670288,11.71374416
532.6000366,11.75980473
531.9330444,11.80673313
531.2660522,11.86382675
530.5990601,11.90712261
529.9320068,11.96063042
529.2650146,12.00519276
528.5980225,12.05128288
527.9310303,12.0901289
527.2640381,12.13565063
526.5970459,12.1909132
525.9300537,12.22347355
525.2630615,12.27274132
524.5960083,12.31603909
523.9290161,12.35215473
523.2620239,12.39051151
522.5950317,12.4217205
521.9280396,12.46516228
521.2610474,12.49902439
520.5940552,12.52304649
519.927063,12.55174541
519.2600098,12.57863522
518.5930176,12.60136509
517.9260254,12.63683128
517.2590332,12.64863014
516.592041,12.6810894
515.9250488,12.69608879
515.2580566,12.70139408
514.5910645,12.71463585
513.9240112,12.72532177
513.257019,12.74275494
512.5900269,12.7506361
511.9230347,12.73319721
511.2560425,12.7421093
510.5890198,12.73133278
509.9220276,12.73265362
509.2550354,12.72572422
508.5880432,12.70594025
507.9210205,12.69014359
507.2540283,12.66785526
506.5870361,12.65054321
505.9200439,12.62849617
505.2530212,12.60389805
504.5860291,12.57039738
503.9190369,12.53924084
503.2520447,12.50433731
502.585022,12.47390461
501.9180298,12.42212391
501.2510376,12.37781239
500.5840454,12.32504463
499.9170227,12.28579998
499.2500305,12.22913742
498.5830383,12.17440796
497.9160461,12.11241627
497.2490234,12.05856609
496.5820313,12.0002203
495.9150391,11.9321146
495.2480469,11.87026024
494.5810242,11.80828953
493.914032,11.73445034
493.2470398,11.66550064
492.5800476,11.59786987
491.9130249,11.51880264
491.2460327,11.45302391
490.5790405,11.38738346
489.9120483,11.30301571
489.2450256,11.23119545
488.5780334,11.16285038
487.9110413,11.07304573
487.2440491,11.00402737
486.5770264,10.92310905
485.9100342,10.84502316
485.243042,10.77914429
484.5760193,10.69689178
483.9090271,10.61688995
483.2420349,10.5324688
482.5750427,10.45970154
481.90802,10.37821579
481.2410278,10.29618549
480.5740356,10.2148056
479.9070435,10.14327717
479.2400208,10.05627823
478.5730286,9.974590302
477.9060364,9.910491943
477.2390442,9.831870079
476.5720215,9.75086689
475.9050293,9.678673744
475.2380371,9.595096588
474.5710449,9.523941994
473.9040222,9.443594933
473.23703,9.368424416
472.5700378,9.287453651
471.9030457,9.217654228
471.2360229,9.15213871
470.5690308,9.077410698
469.9020386,9.001609802
469.2350464,8.933188438
468.5680237,8.864677429
467.9010315,8.789786339
467.2340393,8.719470024
466.5670471,8.661466599
465.9000244,8.583953857
465.2330322,8.52583313
464.56604,8.461943626
463.8990479,8.394808769
463.2320251,8.333697319
462.565033,8.271760941
461.8980408,8.212948799
461.2310486,8.157798767
460.5640259,8.09824276
459.8970337,8.038659096
459.2300415,7.985301971
458.5630493,7.940776825
457.8960266,7.8789258
457.2290344,7.831232071
456.5620422,7.778842926
455.8950195,7.730331421
455.2280273,7.685974121
454.5610352,7.628083229
453.894043,7.590319157
453.2270203,7.548411846
452.5600281,7.509235382
451.8930359,7.467113972
451.2260437,7.423473358
450.559021,7.386554241
449.8920288,7.346958637
449.2250366,7.307516575
448.5580444,7.26806879
447.8910217,7.241474152
447.2240295,7.213158131
446.5570374,7.188271046
445.8900452,7.148320198
445.2230225,7.126454353
444.5560303,7.086187363
443.8890381,7.062660694
443.2220459,7.032063007
442.5550232,7.015890121
441.888031,6.991352081
441.2210388,6.959914207
440.5540466,6.938233852
439.8870239,6.91902256
439.2200317,6.900215149
438.5530396,6.87802887
437.8860474,6.846893787
437.2190247,6.84856081
436.5520325,6.818551064
435.8850403,6.800765514
435.2180481,6.790382385
434.5510254,6.770755291
433.8840332,6.768181324
433.217041,6.740610123
432.5500488,6.738857746
431.8830261,6.721043587
431.2160339,6.702429771
430.5490417,6.699211121
429.8820496,6.685396194
429.2150269,6.676856995
428.5480347,6.671787262
427.8810425,6.655883789
427.2140198,6.658782005
426.5470276,6.641543865
425.8800354,6.635248661
425.2130432,6.633031368
424.5460205,6.63145256
423.8790283,6.622603416
423.2120361,6.618972778
422.5450439,6.616458893
421.8780212,6.610528469
421.2110291,6.597213268
420.5440369,6.606664658
419.8770447,6.605792999
419.210022,6.598289967
418.5430298,6.612812042
417.8760376,6.596339703
417.2090454,6.595893383
416.5420227,6.598051548
415.8750305,6.603718758
415.2080383,6.599308014
414.5410461,6.609611034
413.8740234,6.604640007
413.2070313,6.620763779
412.5400391,6.616637707
411.8730469,6.613732815
411.2060242,6.617389679
410.539032,6.622681618
409.8720398,6.62971735
409.2050476,6.642411709
408.5380249,6.647964478
407.8710327,6.652509212
407.2040405,6.652798653
406.5370483,6.652500629
405.8700256,6.6689744
405.2030334,6.667911053
404.5360413,6.66994381
403.8690491,6.683603764
403.2020264,6.689716339
402.5350342,6.692389965
401.868042,6.699356556
401.2010498,6.705651283
400.5340271,6.721282959
399.8670349,6.727338791
399.2000427,6.740604401
398.53302,6.735104561
397.8660278,6.753383636
397.1990356,6.755936146
396.5320435,6.765132427
395.8650208,6.777380466
395.1980286,6.777827263
394.5310364,6.787166595
393.8640442,6.784936905
393.1970215,6.802978516
392.5300293,6.8131423
391.8630371,6.810910225
391.1960449,6.821786404
390.5290222,6.822959423
389.86203,6.834547997
389.1950378,6.844772339
388.5280457,6.847190857
387.8610229,6.848473072
387.1940308,6.859472275
386.5270386,6.871374607
385.8600464,6.876431942
385.1930237,6.890084743
384.5260315,6.900233746
383.8590393,6.907268047
383.1920471,6.909526825
382.5250244,6.913899422
381.8580322,6.926444054
381.19104,6.922024727
380.5240479,6.935070992
379.8570251,6.927103043
379.190033,6.946915627
378.5230408,6.966368675
377.8560486,6.955023766
377.1890259,6.964617252
376.5220337,6.960451603
375.8550415,6.97920084
375.1880493,6.994066238
374.5210266,7.010986805
373.8540344,7.014641285
373.1870422,6.997651577
372.52005,7.012694359
371.8530273,7.013199329
371.1860352,7.023497105
370.519043,7.037964344
369.8520203,7.054128647
369.1850281,7.044505119
368.5180359,7.036138535
367.8510437,7.057087898
367.184021,7.07315588
366.5170288,7.06506443
365.8500366,7.070804596
365.1830444,7.088442802
364.5160217,7.079230309
363.8490295,7.102968693
363.1820374,7.117532253
362.5150452,7.117928028
361.8480225,7.116632938
361.1810303,7.140015602
360.5140381,7.138576984
359.8470459,7.151537895
359.1800232,7.164577961
358.513031,7.159552097
357.8460388,7.164833069
357.1790466,7.192459106
356.5120239,7.197822094
355.8450317,7.169980526
355.1780396,7.216935635
354.5110474,7.211505413
353.8440247,7.224942207
353.1770325,7.23869133
352.5100403,7.223128319
351.8430481,7.271882057
351.1760254,7.266894817
350.5090332,7.292994022
349.842041,7.306941509
349.1750488,7.316817284
348.5080261,7.305663109
347.8410339,7.350651741
347.1740417,7.34903574
346.5070496,7.335751534
345.8400269,7.339527607
345.1730347,7.380612373
344.5060425,7.398221493
343.8390503,7.397070408
343.1720276,7.432267189
342.5050354,7.43970871
341.8380432,7.461557388
341.1710205,7.473500252
340.5040283,7.453031063
339.8370361,7.522601604
339.1700439,7.529669762
338.5030212,7.56751585
337.8360291,7.556316853
337.1690369,7.601793289
336.5020447,7.60402298
335.835022,7.61945343
335.1680298,7.631787777
334.5010376,7.625172138
333.8340454,7.680179119
333.1670227,7.679774761
332.5000305,7.699844837
331.8330383,7.722421646
331.1660461,7.710824966
330.4990234,7.775333405
329.8320313,7.798082352
329.1650391,7.774475098
328.4980469,7.792856693
327.8310242,7.842530251
327.164032,7.875151157
326.4970398,7.87456274
325.8300476,7.917137623
325.1630249,7.937560081
324.4960327,7.927475929
323.8290405,7.957650661
323.1620483,7.996160507
322.4950256,7.974787235
321.8280334,8.024816513
321.1610413,8.034275055
320.4940491,8.046646118
319.8270264,8.091753006
319.1600342,8.052776337
318.493042,8.119423866
317.8260498,8.104199409
317.1590271,8.144773483
316.4920349,8.1098032
315.8250427,8.150279999
315.1580505,8.184502602
314.4910278,8.199546814
313.8240356,8.205084801
313.1570435,8.277038574
312.4900208,8.213837624
311.8230286,8.29856205
311.1560364,8.314074516
310.4890442,8.260499954
309.8220215,8.313418388
309.1550293,8.355946541
308.4880371,8.372179985
307.8210449,8.386184692
307.1540222,8.379057884
306.48703,8.428548813
305.8200378,8.435193062
305.1530457,8.446843147
304.4860229,8.452329636
303.8190308,8.531691551
303.1520386,8.519982338
302.4850464,8.49601078
301.8180237,8.511464119
301.1510315,8.537939072
300.4840393,8.597306252
299.8170471,8.57749176
299.1500244,8.556188583
298.4830322,8.576408386
297.81604,8.579872131
297.1490479,8.592453003
296.4820251,8.63617897
295.815033,8.564164162
295.1480408,8.629915237
294.4810486,8.599119186
293.8140259,8.602072716
293.1470337,8.619008064
292.4800415,8.619089127
291.8130493,8.601153374
291.1460266,8.59327507
290.4790344,8.633230209
289.8120422,8.637896538
289.14505,8.61658287
288.4780273,8.633110046
287.8110352,8.647007942
287.144043,8.637154579
286.4770508,8.627579689
285.8100281,8.619379044
285.1430359,8.646835327
284.4760437,8.629489899
283.809021,8.622036934
283.1420288,8.587057114
282.4750366,8.591114044
281.8080444,8.582491875
281.1410217,8.598928452
280.4740295,8.566667557
279.8070374,8.554602623
279.1400452,8.578309059
278.4730225,8.546003342
277.8060303,8.531094551
277.1390381,8.505830765
276.4720459,8.49279213
275.8050232,8.481681824
275.138031,8.472997665
274.4710388,8.426480293
273.8040466,8.441352844
273.1370239,8.414777756
272.4700317,8.399476051
271.8030396,8.367397308
271.1360474,8.356284142
270.4690247,8.366999626
269.8020325,8.329441071
269.1350403,8.340690613
268.4680481,8.307441711
267.8010254,8.304450035
267.1340332,8.277868271
266.467041,8.247529984
265.8000488,8.240708351
265.1330261,8.238647461
264.4660339,8.217173576
263.7990417,8.215324402
263.1320496,8.198065758
262.4650269,8.218553543
261.7980347,8.159725189
261.1310425,8.196712494
260.4640503,8.164775848
259.7970276,8.124752998
259.1300354,8.144008636
258.4630432,8.119096756
257.7960205,8.113744736
257.1290283,8.105187416
256.4620361,8.08885479
255.7950287,8.056778908
255.1280365,8.072684288
254.4610291,8.039481163
253.7940369,8.021737099
253.1270294,8.039237976
252.4600372,7.989247799
251.7930298,7.976104259
251.1260376,7.992556095
250.4590302,7.951374531
249.792038,7.955049038
,
,
Cu7PS6_R,
Cu7PS6_R,
Collection Time: 29-Oct-24 2:08:24 PM,
Operator Name  :,
Scan Version 6.5.0.1628,
Parameter List :,
Instrument  Cary 7000,
Instrument Version  3.07,
Method Log     :,
Method Name    : D:\Methods\DRA_T_v2.MSW,
Date/Time stamp: 18-Oct-24 12:17:05 PM,
Method Modifications:,
ConcentrationReportSelected Changed: 04-Oct-24 11:12:40 AM, Old:Choice 0
ConcentrationReportSelected Changed: 04-Oct-24 11:12:40 AM, Old:ON
MCAReportSelected Changed: 04-Oct-24 11:12:40 AM, Old:Choice 0
MCAReportSelected Changed: 04-Oct-24 11:12:40 AM, Old:ON
NIR interval Changed: 04-Oct-24 11:14:20 AM, Old:   -0.020
X Start nm Changed: 04-Oct-24 11:19:08 AM, Old:800.000
UVVIS Scan Rate nm Changed: 04-Oct-24 11:19:08 AM, Old:  602.007
NIR Scan Rate nm Changed: 04-Oct-24 11:19:08 AM, Old:    0.004
SBW Changed: 04-Oct-24 11:19:08 AM, Old:2.000
Common Slit Width Changed: 04-Oct-24 11:19:08 AM, Old:2.000
Slit Height Changed: 04-Oct-24 11:19:08 AM, Old:Full
Source changeover Changed: 04-Oct-24 11:19:08 AM, Old:   350.00
Detector changeover Changed: 04-Oct-24 11:19:08 AM, Old:   800.00
Grating changeover Changed: 04-Oct-24 11:19:08 AM, Old:   800.00
Baseline Correction Changed: 04-Oct-24 11:19:08 AM, Old:0
AVASRA On Changed: 04-Oct-24 11:19:08 AM, Old:OFF
UMA Collect Grid Changed: 04-Oct-24 11:19:08 AM, Old:
UMA Sample Name Changed: 04-Oct-24 11:19:08 AM, Old:Sample Name
Sipper Type Changed: 04-Oct-24 11:19:08 AM, Old:Internal RSA
Y mode Changed: 04-Oct-24 11:19:10 AM, Old:Abs
Slit Height Changed: 04-Oct-24 11:19:11 AM, Old:Full
Manual Polarizer Angle Select Changed: 04-Oct-24 11:33:13 AM, Old:S (0 Degrees)
UMA Collect Grid Changed: 04-Oct-24 11:33:13 AM, Old:mittma_0018_Cu_B 0.00  180.00{None{0.00{ 180.00{}
Saved as D:\Methods\RTR45-NoDetectorSlit.MSWOpened D:\Methods\RTR45-NoDetectorSlit.MSW,
X Stop nm Changed: 10-Oct-24 4:17:25 PM, Old:200.000
AVASRA On Changed: 10-Oct-24 4:17:25 PM, Old:ON
Y max Changed: 10-Oct-24 4:26:10 PM, Old:     1.00
Slit Height Changed: 10-Oct-24 4:26:10 PM, Old:Reduced
Detector changeover Changed: 10-Oct-24 4:26:10 PM, Old:  1050.00
Grating changeover Changed: 10-Oct-24 4:26:10 PM, Old:   720.00
Slit Height Changed: 10-Oct-24 4:26:13 PM, Old:Reduced
Saved as D:\Methods\DRA_T.MSWSaved as D:\Methods\glass.BSWSaved as D:\Data\phosphosulfides\eugbe\mittma_0018_Cu_B_DRA\glass.BSWY mode Changed: 10-Oct-24 4:49:02 PM, Old:%T
Y min Changed: 10-Oct-24 4:49:02 PM, Old:     0.00
Y max Changed: 10-Oct-24 4:49:02 PM, Old:   100.00
Slit Height Changed: 10-Oct-24 5:10:47 PM, Old:Full
Slit Height Changed: 10-Oct-24 5:10:49 PM, Old:Full
Baseline Correction Changed: 10-Oct-24 5:37:13 PM, Old:1
Y mode Changed: 10-Oct-24 5:55:42 PM, Old:%R
Y min Changed: 10-Oct-24 5:55:42 PM, Old:    -5.00
Y max Changed: 10-Oct-24 5:55:42 PM, Old:   105.00
X Start nm Changed: 10-Oct-24 6:17:42 PM, Old:1200.000
X Stop nm Changed: 10-Oct-24 6:17:42 PM, Old:280.000
Common Interval nm Changed: 10-Oct-24 6:17:42 PM, Old:    1.000
Detector changeover Changed: 10-Oct-24 6:17:42 PM, Old:   800.00
Saved as D:\Methods\DRA_T.MSWOpened D:\Methods\DRA_T.MSW,
X Start nm Changed: 18-Oct-24 12:03:10 PM, Old:1800.000
Common Interval nm Changed: 18-Oct-24 12:03:10 PM, Old:    0.833
Detector changeover Changed: 18-Oct-24 12:03:10 PM, Old:   950.00
Saved as D:\Methods\DRA_T_v2.MSWDetector changeover Changed: 18-Oct-24 12:16:37 PM, Old:  1000.00
Saved as D:\Methods\DRA_T_v2.MSW,
Opened D:\Methods\DRA_T_v2.MSW,
X Stop nm Changed: 29-Oct-24 1:16:25 PM, Old:200.000
Detector changeover Changed: 29-Oct-24 1:50:23 PM, Old:   950.00
End Method Modifications,
<Current Wavelength> ,249.725
<SBW (nm)> ,4
<Energy> ,181.97
<Slit Height> , Reduced
