Cu7PS6_T,
Wavelength (nm),%T
2000,78.27268982
1999.333008,78.28315735
1998.666016,78.19155121
1997.999023,78.37596893
1997.332031,78.19688416
1996.665039,78.25073242
1995.998047,78.43161011
1995.331055,78.14566803
1994.66394,78.28469849
1993.996948,78.24790192
1993.329956,78.15007019
1992.662964,78.14347839
1991.995972,78.37857056
1991.328979,78.20592499
1990.661987,78.23091888
1989.994995,78.21103668
1989.328003,78.24214935
1988.661011,78.20063782
1987.994019,78.19422913
1987.327026,78.17547607
1986.660034,78.29355621
1985.993042,78.18360901
1985.32605,78.09609985
1984.659058,78.28901672
1983.991943,78.15673065
1983.324951,78.18871307
1982.657959,78.25917053
1981.990967,78.2467041
1981.323975,78.23390198
1980.656982,78.23670197
1979.98999,78.23626709
1979.322998,78.14677429
1978.656006,78.17932129
1977.989014,78.27289581
1977.322021,78.15501404
1976.655029,78.16312408
1975.988037,78.14382935
1975.321045,78.16100311
1974.654053,78.21523285
1973.987061,78.24815369
1973.319946,78.11846161
1972.652954,78.1782074
1971.985962,78.06993866
1971.31897,78.08696747
1970.651978,78.10874176
1969.984985,78.18862152
1969.317993,78.09146881
1968.651001,78.11119843
1967.984009,78.1171875
1967.317017,78.08926392
1966.650024,78.06945801
1965.983032,78.11057281
1965.31604,78.11122894
1964.649048,78.0343399
1963.982056,78.05989838
1963.314941,78.13713837
1962.647949,78.02623749
1961.980957,78.09906769
1961.313965,78.11408234
1960.646973,77.96860504
1959.97998,78.13710022
1959.312988,78.07066345
1958.645996,78.17773438
1957.979004,78.08214569
1957.312012,78.21569824
1956.64502,78.09152222
1955.978027,78.03100586
1955.311035,78.03512573
1954.644043,78.06693268
1953.977051,78.06283569
1953.310059,78.00183105
1952.642944,78.03659058
1951.975952,78.08364105
1951.30896,78.10340881
1950.641968,78.01413727
1949.974976,77.96514893
1949.307983,78.04649353
1948.640991,78.02783203
1947.973999,78.02219391
1947.307007,78.04003906
1946.640015,78.02581787
1945.973022,78.02271271
1945.30603,78.02175903
1944.639038,78.03324127
1943.972046,78.01247406
1943.305054,78.03281403
1942.637939,78.01517487
1941.970947,77.98023224
1941.303955,77.97031403
1940.636963,78.08412933
1939.969971,77.9834671
1939.302979,77.9469223
1938.635986,77.89729309
1937.968994,77.98149109
1937.302002,77.89156342
1936.63501,77.93588257
1935.968018,78.04389954
1935.301025,78.02097321
1934.634033,77.96320343
1933.967041,77.94245148
1933.300049,77.92603302
1932.633057,77.92028046
1931.965942,77.94519806
1931.29895,77.96285248
1930.631958,77.96100616
1929.964966,77.96233368
1929.297974,77.99101257
1928.630981,77.98960876
1927.963989,77.91271973
1927.296997,78.00126648
1926.630005,78.02700806
1925.963013,77.99866486
1925.296021,77.98812103
1924.629028,77.89283752
1923.962036,78.00260925
1923.295044,78.02058411
1922.628052,77.94747162
1921.96106,78.00566864
1921.293945,78.08596039
1920.626953,78.09454346
1919.959961,78.09572601
1919.292969,78.00434113
1918.625977,77.98671722
1917.958984,78.02690125
1917.291992,78.08307648
1916.625,78.02448273
1915.958008,78.0227356
1915.291016,78.17129517
1914.624023,78.04581451
1913.957031,78.13010406
1913.290039,78.09117126
1912.623047,78.09967041
1911.956055,78.13678741
1911.28894,78.01890564
1910.621948,78.00351715
1909.954956,78.0609436
1909.287964,78.18392181
1908.620972,78.01096344
1907.953979,78.05644226
1907.286987,77.99212646
1906.619995,78.03244019
1905.953003,78.04880524
1905.286011,78.0531311
1904.619019,78.07588959
1903.952026,77.96419525
1903.285034,77.99842072
1902.618042,78.02732086
1901.95105,77.93704987
1901.284058,77.91174316
1900.616943,77.97776794
1899.949951,78.02936554
1899.282959,77.95978546
1898.615967,77.89785004
1897.948975,77.89797974
1897.281982,77.84082031
1896.61499,77.87712097
1895.947998,77.80737305
1895.281006,77.86035919
1894.614014,77.78321838
1893.947021,77.81202698
1893.280029,77.74452209
1892.613037,77.77513123
1891.946045,77.86363983
1891.279053,77.77919006
1890.612061,77.68412018
1889.944946,77.77288818
1889.277954,77.74423981
1888.610962,77.73648834
1887.94397,77.76870728
1887.276978,77.74355316
1886.609985,77.75267792
1885.942993,77.76016235
1885.276001,77.68135834
1884.609009,77.70870972
1883.942017,77.65544891
1883.275024,77.71489716
1882.608032,77.67852783
1881.94104,77.7053833
1881.274048,77.65910339
1880.607056,77.71234894
1879.939941,77.68904114
1879.272949,77.59761047
1878.605957,77.68372345
1877.938965,77.65687561
1877.271973,77.60723877
1876.60498,77.70976257
1875.937988,77.60125732
1875.270996,77.68498993
1874.604004,77.65685272
1873.937012,77.58978271
1873.27002,77.50665283
1872.603027,77.55158234
1871.936035,77.47200775
1871.269043,77.59989929
1870.602051,77.57720947
1869.935059,77.50623322
1869.267944,77.50868988
1868.600952,77.48267365
1867.93396,77.51698303
1867.266968,77.51124573
1866.599976,77.51452637
1865.932983,77.54247284
1865.265991,77.54759979
1864.598999,77.48571777
1863.932007,77.49360657
1863.265015,77.5083313
1862.598022,77.42889404
1861.93103,77.4965744
1861.264038,77.50204468
1860.597046,77.5008316
1859.930054,77.5359726
1859.263062,77.474823
1858.595947,77.53026581
1857.928955,77.52687836
1857.261963,77.5008316
1856.594971,77.52093506
1855.927979,77.49198914
1855.260986,77.52466583
1854.593994,77.57675934
1853.927002,77.58221436
1853.26001,77.57186127
1852.593018,77.6517868
1851.926025,77.51062775
1851.259033,77.56178284
1850.592041,77.63145447
1849.925049,77.65760803
1849.258057,77.60842133
1848.590942,77.59156036
1847.92395,77.66201782
1847.256958,77.6441803
1846.589966,77.62828064
1845.922974,77.65303802
1845.255981,77.62410736
1844.588989,77.63008881
1843.921997,77.66024017
1843.255005,77.58217621
1842.588013,77.62358093
1841.921021,77.71021271
1841.254028,77.70657349
1840.587036,77.67049408
1839.920044,77.6574707
1839.253052,77.62782288
1838.58606,77.69271088
1837.918945,77.61789703
1837.251953,77.60845184
1836.584961,77.64026642
1835.917969,77.56362152
1835.250977,77.62404633
1834.583984,77.64989471
1833.916992,77.64899445
1833.25,77.54373169
1832.583008,77.62289429
1831.916016,77.60069275
1831.249023,77.56010437
1830.582031,77.55787659
1829.915039,77.5377121
1829.248047,77.51964569
1828.581055,77.57190704
1827.91394,77.47621155
1827.246948,77.55499268
1826.579956,77.49230957
1825.912964,77.53474426
1825.245972,77.55232239
1824.578979,77.54110718
1823.911987,77.46866608
1823.244995,77.54780579
1822.578003,77.47329712
1821.911011,77.48455048
1821.244019,77.55174255
1820.577026,77.51283264
1819.910034,77.47202301
1819.243042,77.51896667
1818.57605,77.48132324
1817.909058,77.48840332
1817.241943,77.44217682
1816.574951,77.48487091
1815.907959,77.42613983
1815.240967,77.4736557
1814.573975,77.41069794
1813.906982,77.42508698
1813.23999,77.41805267
1812.572998,77.42494965
1811.906006,77.41634369
1811.239014,77.41501617
1810.572021,77.38243103
1809.905029,77.39117432
1809.238037,77.38378906
1808.571045,77.3924942
1807.904053,77.37986755
1807.237061,77.35229492
1806.569946,77.35230255
1805.902954,77.37962341
1805.235962,77.33218384
1804.56897,77.35480499
1803.901978,77.37036896
1803.234985,77.34957123
1802.567993,77.36965179
1801.901001,77.35523987
1801.234009,77.36139679
1800.567017,77.29529572
1799.900024,77.38218689
1799.233032,77.31507111
1798.56604,77.32482147
1797.899048,77.32341003
1797.232056,77.31424713
1796.564941,77.30158234
1795.897949,77.35031891
1795.230957,77.2828064
1794.563965,77.31500244
1793.896973,77.32676697
1793.22998,77.31643677
1792.562988,77.30117035
1791.895996,77.33447266
1791.229004,77.31620789
1790.562012,77.31430817
1789.89502,77.31610107
1789.228027,77.31200409
1788.561035,77.30914307
1787.894043,77.33043671
1787.227051,77.34338379
1786.560059,77.30090332
1785.892944,77.26255798
1785.225952,77.29679871
1784.55896,77.31806183
1783.891968,77.32807159
1783.224976,77.28302765
1782.557983,77.28284454
1781.890991,77.27484894
1781.223999,77.33203888
1780.557007,77.2767334
1779.890015,77.28266907
1779.223022,77.26005554
1778.55603,77.30647278
1777.889038,77.26083374
1777.222046,77.28269958
1776.555054,77.30015564
1775.888062,77.28247833
1775.220947,77.26548004
1774.553955,77.2437973
1773.886963,77.26434326
1773.219971,77.23959351
1772.552979,77.27378845
1771.885986,77.23423004
1771.218994,77.24454498
1770.552002,77.24278259
1769.88501,77.2444458
1769.218018,77.2401123
1768.551025,77.24409485
1767.884033,77.22142792
1767.217041,77.2318573
1766.550049,77.22354126
1765.883057,77.24095917
1765.215942,77.235466
1764.54895,77.23791504
1763.881958,77.2410965
1763.214966,77.22209167
1762.547974,77.22126007
1761.880981,77.21160889
1761.213989,77.2432251
1760.546997,77.21040344
1759.880005,77.21458435
1759.213013,77.18775177
1758.546021,77.21580505
1757.879028,77.1949234
1757.212036,77.1811676
1756.545044,77.19036102
1755.878052,77.18400574
1755.21106,77.20083618
1754.543945,77.20417023
1753.876953,77.18006134
1753.209961,77.16893005
1752.542969,77.16316986
1751.875977,77.20600128
1751.208984,77.18593597
1750.541992,77.16474915
1749.875,77.17012024
1749.208008,77.12954712
1748.541016,77.14967346
1747.874023,77.1544342
1747.207031,77.15174103
1746.540039,77.13388062
1745.873047,77.16468811
1745.206055,77.12850952
1744.539063,77.14309692
1743.871948,77.12371826
1743.204956,77.14413452
1742.537964,77.13140106
1741.870972,77.1164856
1741.203979,77.1364212
1740.536987,77.10829163
1739.869995,77.10438538
1739.203003,77.11315918
1738.536011,77.1297226
1737.869019,77.10139465
1737.202026,77.09381866
1736.535034,77.10333252
1735.868042,77.1027298
1735.20105,77.09913635
1734.534058,77.07813263
1733.866943,77.08755493
1733.199951,77.08615112
1732.532959,77.09022522
1731.865967,77.09993744
1731.198975,77.08499146
1730.531982,77.0957489
1729.86499,77.06452942
1729.197998,77.05861664
1728.531006,77.07389832
1727.864014,77.0539856
1727.197021,77.0821991
1726.530029,77.08490753
1725.863037,77.04693604
1725.196045,77.02868652
1724.529053,77.04109192
1723.862061,77.0419693
1723.194946,77.05064392
1722.527954,77.02477264
1721.860962,77.03785706
1721.19397,77.00210571
1720.526978,77.01831055
1719.859985,77.0412674
1719.192993,77.04139709
1718.526001,76.9933548
1717.859009,77.01594543
1717.192017,77.04595184
1716.525024,77.00283813
1715.858032,77.00260925
1715.19104,76.98267365
1714.524048,77.00497437
1713.857056,76.99401855
1713.189941,76.98199463
1712.522949,76.98194122
1711.855957,76.97946167
1711.188965,76.99276733
1710.521973,76.96736908
1709.85498,76.97052002
1709.187988,76.97315979
1708.520996,76.96495056
1707.854004,76.95870209
1707.187012,76.97943878
1706.52002,76.95831299
1705.853027,76.94677734
1705.186035,76.93933105
1704.519043,76.95890808
1703.852051,76.94406128
1703.185059,76.91603851
1702.517944,76.92489624
1701.850952,76.93865967
1701.18396,76.92383575
1700.516968,76.90364838
1699.849976,76.9083786
1699.182983,76.93496704
1698.515991,76.93032074
1697.848999,76.90444946
1697.182007,76.90953827
1696.515015,76.89507294
1695.848022,76.90242767
1695.18103,76.86542511
1694.514038,76.90135956
1693.847046,76.88466644
1693.180054,76.90222931
1692.513062,76.89529419
1691.845947,76.85951233
1691.178955,76.89185333
1690.511963,76.87057495
1689.844971,76.86487579
1689.177979,76.86231995
1688.510986,76.85836792
1687.843994,76.8588028
1687.177002,76.85123444
1686.51001,76.8712616
1685.843018,76.85253143
1685.176025,76.83368683
1684.509033,76.82345581
1683.842041,76.83107758
1683.175049,76.84016418
1682.508057,76.83344269
1681.840942,76.81446838
1681.17395,76.82852173
1680.506958,76.82833099
1679.839966,76.82631683
1679.172974,76.83046722
1678.505981,76.82845306
1677.838989,76.80872345
1677.171997,76.81452942
1676.505005,76.79690552
1675.838013,76.79193115
1675.171021,76.78100586
1674.504028,76.78795624
1673.837036,76.78446198
1673.170044,76.77566528
1672.503052,76.77709961
1671.83606,76.77409363
1671.168945,76.77962494
1670.501953,76.75016022
1669.834961,76.78259277
1669.167969,76.76789856
1668.500977,76.75878143
1667.833984,76.76343536
1667.166992,76.74507141
1666.5,76.7604599
1665.833008,76.72537994
1665.166016,76.74714661
1664.499023,76.73886108
1663.832031,76.74256897
1663.165039,76.70948792
1662.498047,76.70633698
1661.831055,76.69837189
1661.164063,76.70394135
1660.496948,76.71825409
1659.829956,76.71659851
1659.162964,76.70608521
1658.495972,76.70597076
1657.828979,76.70857239
1657.161987,76.69284058
1656.494995,76.67516327
1655.828003,76.68948364
1655.161011,76.68196106
1654.494019,76.69044495
1653.827026,76.65722656
1653.160034,76.6724472
1652.493042,76.68985748
1651.82605,76.65572357
1651.159058,76.65827942
1650.491943,76.63482666
1649.824951,76.65499878
1649.157959,76.63799286
1648.490967,76.65116882
1647.823975,76.62683868
1647.156982,76.64839935
1646.48999,76.64167023
1645.822998,76.62069702
1645.156006,76.61829376
1644.489014,76.61349487
1643.822021,76.63438416
1643.155029,76.58665466
1642.488037,76.60930634
1641.821045,76.6049118
1641.154053,76.61091614
1640.487061,76.60540009
1639.819946,76.60418701
1639.152954,76.57089996
1638.485962,76.5730896
1637.81897,76.57344055
1637.151978,76.59696198
1636.484985,76.57611847
1635.817993,76.55913544
1635.151001,76.55544281
1634.484009,76.55731964
1633.817017,76.55292511
1633.150024,76.55714417
1632.483032,76.53643036
1631.81604,76.53553772
1631.149048,76.51913452
1630.482056,76.53427887
1629.814941,76.52876282
1629.147949,76.5276947
1628.480957,76.52497101
1627.813965,76.51845551
1627.146973,76.5096283
1626.47998,76.51360321
1625.812988,76.49913025
1625.145996,76.49295044
1624.479004,76.4806366
1623.812012,76.48929596
1623.14502,76.47473907
1622.478027,76.47322083
1621.811035,76.47932434
1621.144043,76.49728394
1620.477051,76.46360779
1619.810059,76.44586182
1619.142944,76.46211243
1618.475952,76.455513
1617.80896,76.44570923
1617.141968,76.44802094
1616.474976,76.44415283
1615.807983,76.43241119
1615.140991,76.43143463
1614.473999,76.42196655
1613.807007,76.41818237
1613.140015,76.40909576
1612.473022,76.43930817
1611.80603,76.40067291
1611.139038,76.40311432
1610.472046,76.40221405
1609.805054,76.39527893
1609.138062,76.39149475
1608.470947,76.38991547
1607.803955,76.38517761
1607.136963,76.38376617
1606.469971,76.38301849
1605.802979,76.37376404
1605.135986,76.36727142
1604.468994,76.35231018
1603.802002,76.36393738
1603.13501,76.36668396
1602.468018,76.35071564
1601.801025,76.3325119
1601.134033,76.34050751
1600.467041,76.33279419
1599.800049,76.32878113
1599.133057,76.31649017
1598.465942,76.31011963
1597.79895,76.30955505
1597.131958,76.31072998
1596.464966,76.31531525
1595.797974,76.29244995
1595.130981,76.29702759
1594.463989,76.29098511
1593.796997,76.27466583
1593.130005,76.27761078
1592.463013,76.26732635
1591.796021,76.26425934
1591.129028,76.26914215
1590.462036,76.25855255
1589.795044,76.25813293
1589.128052,76.25196075
1588.46106,76.26548767
1587.793945,76.24069214
1587.126953,76.24589539
1586.459961,76.24247742
1585.792969,76.24951935
1585.125977,76.21111298
1584.458984,76.22834778
1583.791992,76.21350861
1583.125,76.23764038
1582.458008,76.20470428
1581.791016,76.20975494
1581.124023,76.20489502
1580.457031,76.19921875
1579.790039,76.18916321
1579.123047,76.19664001
1578.456055,76.17926788
1577.789063,76.17689514
1577.121948,76.16201019
1576.454956,76.16595459
1575.787964,76.15486908
1575.120972,76.16254425
1574.453979,76.15168762
1573.786987,76.13531494
1573.119995,76.13082886
1572.453003,76.1426239
1571.786011,76.14457703
1571.119019,76.11552429
1570.452026,76.1263504
1569.785034,76.10599518
1569.118042,76.11392975
1568.45105,76.12453461
1567.784058,76.08398438
1567.116943,76.09702301
1566.449951,76.08727264
1565.782959,76.08770752
1565.115967,76.07493591
1564.448975,76.06641388
1563.781982,76.07219696
1563.11499,76.07032776
1562.447998,76.06423187
1561.781006,76.05308533
1561.114014,76.04957581
1560.447021,76.05088043
1559.780029,76.03994751
1559.113037,76.04345703
1558.446045,76.02366638
1557.779053,76.03219604
1557.112061,76.01834869
1556.444946,76.0100174
1555.777954,76.00616455
1555.110962,75.98939514
1554.44397,76.00689697
1553.776978,75.98039246
1553.109985,75.98777008
1552.442993,75.97579193
1551.776001,75.97975159
1551.109009,75.97382355
1550.442017,75.96042633
1549.775024,75.95700836
1549.108032,75.95748138
1548.44104,75.94512177
1547.774048,75.95218658
1547.107056,75.94098663
1546.440063,75.93843842
1545.772949,75.93373108
1545.105957,75.92093658
1544.438965,75.92037964
1543.771973,75.92068481
1543.10498,75.91402435
1542.437988,75.91438293
1541.770996,75.9095993
1541.104004,75.90120697
1540.437012,75.87936401
1539.77002,75.88587952
1539.103027,75.88124084
1538.436035,75.88110352
1537.769043,75.85778809
1537.102051,75.86292267
1536.435059,75.85848999
1535.767944,75.8544693
1535.100952,75.85445404
1534.43396,75.85267639
1533.766968,75.83600616
1533.099976,75.83570099
1532.432983,75.82886505
1531.765991,75.81300354
1531.098999,75.81369019
1530.432007,75.82268524
1529.765015,75.80888367
1529.098022,75.80671692
1528.43103,75.78696442
1527.764038,75.80150604
1527.097046,75.78507233
1526.430054,75.78206635
1525.763062,75.77585602
1525.095947,75.76953125
1524.428955,75.7540741
1523.761963,75.75527191
1523.094971,75.75247192
1522.427979,75.73975372
1521.760986,75.74924469
1521.093994,75.73875427
1520.427002,75.72036743
1519.76001,75.71839905
1519.093018,75.7098999
1518.426025,75.70597839
1517.759033,75.71031952
1517.092041,75.69325256
1516.425049,75.69169617
1515.758057,75.6975174
1515.090942,75.68061066
1514.42395,75.67965698
1513.756958,75.67871094
1513.089966,75.66889191
1512.422974,75.6608963
1511.755981,75.65724945
1511.088989,75.6394043
1510.421997,75.63306427
1509.755005,75.63063049
1509.088013,75.6353302
1508.421021,75.62788391
1507.754028,75.62191772
1507.087036,75.62239075
1506.420044,75.60744476
1505.753052,75.60258484
1505.08606,75.59698486
1504.418945,75.59103394
1503.751953,75.59698486
1503.084961,75.57333374
1502.417969,75.59217072
1501.750977,75.58194733
1501.083984,75.57974243
1500.416992,75.58161926
1499.75,75.58283997
1499.083008,75.53882599
1498.416016,75.55487823
1497.749023,75.54304504
1497.082031,75.55082703
1496.415039,75.52265167
1495.748047,75.54020691
1495.081055,75.51136017
1494.414063,75.52799988
1493.746948,75.50029755
1493.079956,75.50283051
1492.412964,75.4847641
1491.745972,75.5127182
1491.078979,75.4834137
1490.411987,75.48287201
1489.744995,75.48007202
1489.078003,75.4773407
1488.411011,75.47363281
1487.744019,75.46376801
1487.077026,75.46511078
1486.410034,75.44831085
1485.743042,75.44625854
1485.07605,75.45223236
1484.409058,75.44657898
1483.741943,75.43703461
1483.074951,75.42355347
1482.407959,75.41339111
1481.740967,75.4206543
1481.073975,75.41439819
1480.406982,75.39480591
1479.73999,75.40345764
1479.072998,75.38911438
1478.406006,75.37802887
1477.739014,75.38739777
1477.072021,75.38512421
1476.405029,75.36986542
1475.738037,75.35247803
1475.071045,75.35321045
1474.404053,75.35652161
1473.737061,75.34864807
1473.069946,75.34024048
1472.402954,75.32688904
1471.735962,75.33400726
1471.06897,75.32881165
1470.401978,75.31257629
1469.734985,75.31793976
1469.067993,75.30111694
1468.401001,75.29660034
1467.734009,75.29232788
1467.067017,75.28026581
1466.400024,75.26794434
1465.733032,75.26914978
1465.06604,75.26746368
1464.399048,75.26480865
1463.732056,75.24678802
1463.065063,75.24145508
1462.397949,75.2341156
1461.730957,75.23324585
1461.063965,75.21818542
1460.396973,75.22680664
1459.72998,75.22644806
1459.062988,75.21206665
1458.395996,75.19682312
1457.729004,75.20322418
1457.062012,75.19008636
1456.39502,75.17892456
1455.728027,75.18344116
1455.061035,75.17414856
1454.394043,75.16725922
1453.727051,75.16411591
1453.060059,75.14084625
1452.392944,75.13572693
1451.725952,75.14306641
1451.05896,75.13494873
1450.391968,75.12689209
1449.724976,75.12693787
1449.057983,75.11624146
1448.390991,75.1137619
1447.723999,75.09408569
1447.057007,75.09579468
1446.390015,75.07841492
1445.723022,75.08257294
1445.05603,75.07365417
1444.389038,75.07158661
1443.722046,75.06900787
1443.055054,75.05295563
1442.388062,75.04662323
1441.720947,75.03578949
1441.053955,75.03138733
1440.386963,75.01763916
1439.719971,75.00242615
1439.052979,75.00415039
1438.385986,75.00704193
1437.718994,74.99350739
1437.052002,74.98728943
1436.38501,74.98350525
1435.718018,74.97528839
1435.051025,74.95983124
1434.384033,74.95309448
1433.717041,74.94489288
1433.050049,74.93400574
1432.383057,74.94081879
1431.716064,74.9253006
1431.04895,74.91877747
1430.381958,74.91540527
1429.714966,74.92462158
1429.047974,74.89698029
1428.380981,74.89920807
1427.713989,74.89448547
1427.046997,74.88349915
1426.380005,74.8764267
1425.713013,74.88134003
1425.046021,74.87647247
1424.379028,74.87767029
1423.712036,74.87303162
1423.045044,74.85954285
1422.378052,74.86351776
1421.71106,74.84406281
1421.043945,74.8550415
1420.376953,74.85219574
1419.709961,74.84054565
1419.042969,74.83279419
1418.375977,74.84034729
1417.708984,74.8328476
1417.041992,74.83639526
1416.375,74.832901
1415.708008,74.82582855
1415.041016,74.81648254
1414.374023,74.82543182
1413.707031,74.83238983
1413.040039,74.80786133
1412.373047,74.81500244
1411.706055,74.80793762
1411.039063,74.82506561
1410.371948,74.82704163
1409.704956,74.81634521
1409.037964,74.8075943
1408.370972,74.80040741
1407.703979,74.80661011
1407.036987,74.79985046
1406.369995,74.79296875
1405.703003,74.80710602
1405.036011,74.81304169
1404.369019,74.80715179
1403.702026,74.76721954
1403.035034,74.80255127
1402.368042,74.80747986
1401.70105,74.80109406
1401.034058,74.78535461
1400.366943,74.78564453
1399.699951,74.79325867
1399.032959,74.79205322
1398.365967,74.7875061
1397.698975,74.78341675
1397.031982,74.77590179
1396.36499,74.76873016
1395.697998,74.77521515
1395.031006,74.77891541
1394.364014,74.7702179
1393.697021,74.76316071
1393.030029,74.75644684
1392.363037,74.75663757
1391.696045,74.75849915
1391.029053,74.74726105
1390.362061,74.73748016
1389.694946,74.73612976
1389.027954,74.72410583
1388.360962,74.7273407
1387.69397,74.72597504
1387.026978,74.72367859
1386.359985,74.71632385
1385.692993,74.68881989
1385.026001,74.70996094
1384.359009,74.69987488
1383.692017,74.69766998
1383.025024,74.68536377
1382.358032,74.6682663
1381.69104,74.67121124
1381.024048,74.65363312
1380.357056,74.64839172
1379.690063,74.65783691
1379.022949,74.64009857
1378.355957,74.63887024
1377.688965,74.64511108
1377.021973,74.64809418
1376.35498,74.62893677
1375.687988,74.63327026
1375.020996,74.60945892
1374.354004,74.63771057
1373.687012,74.63336945
1373.02002,74.61370087
1372.353027,74.61221313
1371.686035,74.62963867
1371.019043,74.61128998
1370.352051,74.62562561
1369.685059,74.61251068
1369.017944,74.62219238
1368.350952,74.61466217
1367.68396,74.6322937
1367.016968,74.62194824
1366.349976,74.63241577
1365.682983,74.63306427
1365.015991,74.64641571
1364.348999,74.63394165
1363.682007,74.64169312
1363.015015,74.62937927
1362.348022,74.62942505
1361.68103,74.62979889
1361.014038,74.63854218
1360.347046,74.63347626
1359.680054,74.63175201
1359.013062,74.65113068
1358.345947,74.62742615
1357.678955,74.63015747
1357.011963,74.62765503
1356.344971,74.62162018
1355.677979,74.60614014
1355.010986,74.61968994
1354.343994,74.61030579
1353.677002,74.60692596
1353.01001,74.59424591
1352.343018,74.60126495
1351.676025,74.59479523
1351.009033,74.59236908
1350.342041,74.58921051
1349.675049,74.57958221
1349.008057,74.58020782
1348.341064,74.58258057
1347.67395,74.56891632
1347.006958,74.55478668
1346.339966,74.56842804
1345.672974,74.55593109
1345.005981,74.55117035
1344.338989,74.53633118
1343.671997,74.53607178
1343.005005,74.52178955
1342.338013,74.53826904
1341.671021,74.51748657
1341.004028,74.52437592
1340.337036,74.51344299
1339.670044,74.50876617
1339.003052,74.50592804
1338.33606,74.49602509
1337.668945,74.50711823
1337.001953,74.49530792
1336.334961,74.48242188
1335.667969,74.48822021
1335.000977,74.4697876
1334.333984,74.47570801
1333.666992,74.48613739
1333,74.47358704
1332.333008,74.46729279
1331.666016,74.47683716
1330.999023,74.45209503
1330.332031,74.47167969
1329.665039,74.44684601
1328.998047,74.45967102
1328.331055,74.45090485
1327.664063,74.45753479
1326.996948,74.44076538
1326.329956,74.44478607
1325.662964,74.44338989
1324.995972,74.44515228
1324.328979,74.43750763
1323.661987,74.43231964
1322.994995,74.41582489
1322.328003,74.44045258
1321.661011,74.42254639
1320.994019,74.42282867
1320.327026,74.42442322
1319.660034,74.4016571
1318.993042,74.42295074
1318.32605,74.41625977
1317.659058,74.4226532
1316.991943,74.41741943
1316.324951,74.42459106
1315.657959,74.40277863
1314.990967,74.41221619
1314.323975,74.41703796
1313.656982,74.41352844
1312.98999,74.41616058
1312.322998,74.41769409
1311.656006,74.40410614
1310.989014,74.40348816
1310.322021,74.41078949
1309.655029,74.41808319
1308.988037,74.40972137
1308.321045,74.41123962
1307.654053,74.40166473
1306.987061,74.39396667
1306.319946,74.40498352
1305.652954,74.40350342
1304.985962,74.4021759
1304.31897,74.39987946
1303.651978,74.3978653
1302.984985,74.39274597
1302.317993,74.40486908
1301.651001,74.39593506
1300.984009,74.41522217
1300.317017,74.40405273
1299.650024,74.40592957
1298.983032,74.38917542
1298.31604,74.39064026
1297.649048,74.39958191
1296.982056,74.42687988
1296.315063,74.37477112
1295.647949,74.37607574
1294.980957,74.37451172
1294.313965,74.37696838
1293.646973,74.37679291
1292.97998,74.38142395
1292.312988,74.38195038
1291.645996,74.37019348
1290.979004,74.37463379
1290.312012,74.37884521
1289.64502,74.3706131
1288.978027,74.37060547
1288.311035,74.36960602
1287.644043,74.37336731
1286.977051,74.36340332
1286.310059,74.3605423
1285.642944,74.35315704
1284.975952,74.35842896
1284.30896,74.36218262
1283.641968,74.36415863
1282.974976,74.36197662
1282.307983,74.34532928
1281.640991,74.3415451
1280.973999,74.36888123
1280.307007,74.3603363
1279.640015,74.349823
1278.973022,74.34407806
1278.30603,74.32418823
1277.639038,74.34222412
1276.972046,74.28756714
1276.305054,74.40682983
1275.638062,74.31958008
1274.970947,74.37784576
1274.303955,74.33789063
1273.636963,74.3633728
1272.969971,74.34228516
1272.302979,74.34253693
1271.635986,74.34267426
1270.968994,74.37597656
1270.302002,74.33347321
1269.63501,74.32925415
1268.968018,74.33795929
1268.301025,74.32901001
1267.634033,74.33435059
1266.967041,74.39009857
1266.300049,74.32749176
1265.633057,74.32406616
1264.966064,74.3331604
1264.29895,74.32384491
1263.631958,74.32827759
1262.964966,74.32781982
1262.297974,74.35437775
1261.630981,74.34617615
1260.963989,74.33988953
1260.296997,74.31050873
1259.630005,74.34150696
1258.963013,74.33109283
1258.296021,74.33208466
1257.629028,74.32006836
1256.962036,74.32134247
1256.295044,74.33129883
1255.628052,74.32467651
1254.96106,74.32279968
1254.293945,74.31380463
1253.626953,74.31159973
1252.959961,74.32167816
1252.292969,74.33026123
1251.625977,74.30438995
1250.958984,74.32857513
1250.291992,74.32517242
1249.625,74.3285141
1248.958008,74.32424164
1248.291016,74.30897522
1247.624023,74.31513977
1246.957031,74.34055328
1246.290039,74.33267975
1245.623047,74.32456207
1244.956055,74.32395172
1244.289063,74.30969238
1243.621948,74.31252289
1242.954956,74.3262558
1242.287964,74.32788849
1241.620972,74.32394409
1240.953979,74.32730103
1240.286987,74.32505798
1239.619995,74.33042145
1238.953003,74.32271576
1238.286011,74.33083344
1237.619019,74.33419037
1236.952026,74.33110046
1236.285034,74.32106018
1235.618042,74.32893372
1234.95105,74.33128357
1234.284058,74.33835602
1233.617065,74.33592987
1232.949951,74.32221985
1232.282959,74.32346344
1231.615967,74.33321381
1230.948975,74.34819031
1230.281982,74.32836914
1229.61499,74.33396912
1228.947998,74.31580353
1228.281006,74.33529663
1227.614014,74.33740997
1226.947021,74.35916901
1226.280029,74.33598328
1225.613037,74.33220673
1224.946045,74.34197235
1224.279053,74.34459686
1223.612061,74.33381653
1222.944946,74.35072327
1222.277954,74.33530426
1221.610962,74.33360291
1220.94397,74.34339905
1220.276978,74.33774567
1219.609985,74.33792114
1218.942993,74.34634399
1218.276001,74.35695648
1217.609009,74.33113098
1216.942017,74.35514069
1216.275024,74.3433075
1215.608032,74.35018158
1214.94104,74.35700989
1214.274048,74.35710144
1213.607056,74.36151123
1212.940063,74.36793518
1212.272949,74.34796143
1211.605957,74.35227966
1210.938965,74.3601532
1210.271973,74.37350464
1209.60498,74.37927246
1208.937988,74.36612701
1208.270996,74.37402344
1207.604004,74.36121368
1206.937012,74.37206268
1206.27002,74.38034058
1205.603027,74.38012695
1204.936035,74.38872528
1204.269043,74.36502838
1203.602051,74.3711319
1202.935059,74.39619446
1202.267944,74.38985443
1201.600952,74.39702606
1200.93396,74.38643646
1200.266968,74.39054871
1199.599976,74.39369965
1198.932983,74.34241486
1198.265991,74.35089111
1197.598999,74.37203217
1196.932007,74.35623169
1196.265015,74.36322021
1195.598022,74.35084534
1194.93103,74.36314392
1194.264038,74.3547821
1193.597046,74.36573792
1192.930054,74.36759949
1192.263062,74.36790466
1191.595947,74.36489105
1190.928955,74.37364197
1190.261963,74.40979767
1189.594971,74.37600708
1188.927979,74.36035919
1188.260986,74.36869049
1187.593994,74.38027954
1186.927002,74.3904953
1186.26001,74.38961029
1185.593018,74.39692688
1184.926025,74.40799713
1184.259033,74.40119934
1183.592041,74.40795135
1182.925049,74.40861511
1182.258057,74.41098022
1181.591064,74.40702057
1180.92395,74.41145325
1180.256958,74.41108704
1179.589966,74.42432404
1178.922974,74.42576599
1178.255981,74.43157196
1177.588989,74.42417145
1176.921997,74.43621826
1176.255005,74.438797
1175.588013,74.47919464
1174.921021,74.40922546
1174.254028,74.46868134
1173.587036,74.42243195
1172.920044,74.4653244
1172.253052,74.44924164
1171.58606,74.46792603
1170.918945,74.44003296
1170.251953,74.45803833
1169.584961,74.45809937
1168.917969,74.47358704
1168.250977,74.47080231
1167.583984,74.4777298
1166.916992,74.47678375
1166.25,74.4865036
1165.583008,74.48845673
1164.916016,74.49908447
1164.249023,74.50065613
1163.582031,74.50205994
1162.915039,74.49897766
1162.248047,74.50447845
1161.581055,74.50627899
1160.914063,74.51557159
1160.246948,74.51338196
1159.579956,74.53259277
1158.912964,74.52001953
1158.245972,74.51650238
1157.578979,74.53882599
1156.911987,74.54444885
1156.244995,74.54901886
1155.578003,74.55205536
1154.911011,74.54322815
1154.244019,74.54903412
1153.577026,74.48565674
1152.910034,74.58963013
1152.243042,74.6206665
1151.57605,74.58023071
1150.909058,74.58935547
1150.242065,74.58854675
1149.574951,74.58992004
1148.907959,74.5960083
1148.240967,74.60113525
1147.573975,74.61045074
1146.906982,74.62336731
1146.23999,74.61669159
1145.572998,74.6129303
1144.906006,74.61577606
1144.239014,74.60814667
1143.572021,74.60699463
1142.905029,74.63317871
1142.238037,74.64247894
1141.571045,74.65122986
1140.904053,74.65903473
1140.237061,74.64805603
1139.569946,74.65262604
1138.902954,74.65966034
1138.235962,74.68164825
1137.56897,74.68062592
1136.901978,74.67610931
1136.234985,74.67527771
1135.567993,74.68544006
1134.901001,74.68954468
1134.234009,74.70222473
1133.567017,74.70448303
1132.900024,74.71668243
1132.233032,74.71868134
1131.56604,74.72175598
1130.899048,74.71952057
1130.232056,74.73786926
1129.565063,74.73649597
1128.897949,74.74184418
1128.230957,74.75875854
1127.563965,74.76436615
1126.896973,74.75749207
1126.22998,74.77055359
1125.562988,74.77020264
1124.895996,74.77701569
1124.229004,74.78649139
1123.562012,74.78663635
1122.89502,74.79259491
1122.228027,74.79873657
1121.561035,74.80900574
1120.894043,74.80461121
1120.227051,74.81656647
1119.560059,74.82820892
1118.893066,74.8430481
1118.225952,74.8290863
1117.55896,74.8503952
1116.891968,74.85892487
1116.224976,74.85453033
1115.557983,74.86739349
1114.890991,74.87441254
1114.223999,74.87482452
1113.557007,74.89229584
1112.890015,74.88014984
1112.223022,74.89905548
1111.55603,74.89985657
1110.889038,74.91156006
1110.222046,74.91555023
1109.555054,74.92973328
1108.888062,74.92516327
1108.220947,74.9253006
1107.553955,74.94291687
1106.886963,74.96260071
1106.219971,74.96190643
1105.552979,74.96997833
1104.885986,74.970047
1104.218994,74.98232269
1103.552002,75.00582886
1102.88501,74.99106598
1102.218018,75.00519562
1101.551025,75.02368164
1100.884033,75.01815796
1100.217041,75.01821899
1099.550049,75.03201294
1098.883057,75.04678345
1098.216064,75.10623169
1097.54895,75.04728699
1096.881958,75.06183624
1096.214966,75.03336334
1095.547974,75.07672882
1094.880981,75.0938797
1094.213989,75.0993576
1093.546997,75.1224823
1092.880005,75.1368103
1092.213013,75.10799408
1091.546021,75.12754822
1090.879028,75.14332581
1090.212036,75.15517426
1089.545044,75.16659546
1088.878052,75.14592743
1088.21106,75.17707062
1087.543945,75.19019318
1086.876953,75.19355774
1086.209961,75.19355774
1085.542969,75.13698578
1084.875977,75.23225403
1084.208984,75.23718262
1083.541992,75.23097992
1082.875,75.2638855
1082.208008,75.27973938
1081.541016,75.24395752
1080.874023,75.23819733
1080.207031,75.28800964
1079.540039,75.30355072
1078.873047,75.29834747
1078.206055,75.28859711
1077.539063,75.29693604
1076.871948,75.33073425
1076.204956,75.34741974
1075.537964,75.33140564
1074.870972,75.33921051
1074.203979,75.37179565
1073.536987,75.38270569
1072.869995,75.3682785
1072.203003,75.37987518
1071.536011,75.39837646
1070.869019,75.44871521
1070.202026,75.39806366
1069.535034,75.43073273
1068.868042,75.41075897
1068.20105,75.46063995
1067.534058,75.45083618
1066.867065,75.46813202
1066.199951,75.47705841
1065.532959,75.50049591
1064.865967,75.47438812
1064.198975,75.50737
1063.531982,75.50727081
1062.86499,75.52470398
1062.197998,75.53463745
1061.531006,75.54623413
1060.864014,75.55249786
1060.197021,75.58456421
1059.530029,75.58557892
1058.863037,75.58596802
1058.196045,75.59589386
1057.529053,75.61853027
1056.862061,75.63301086
1056.194946,75.61286926
1055.527954,75.64118958
1054.860962,75.6431427
1054.19397,75.6408844
1053.526978,75.64751434
1052.859985,75.66644287
1052.192993,75.65273285
1051.526001,75.66350555
1050.859009,75.66376495
1050.192017,75.68508148
1049.525024,75.67532349
1048.858032,75.69791412
1048.19104,75.70396423
1047.524048,75.72161865
1046.857056,75.72628784
1046.190063,75.7453537
1045.522949,75.74386597
1044.855957,75.75499725
1044.188965,75.76692963
1043.521973,75.78733063
1042.85498,75.79000854
1042.187988,75.81031036
1041.520996,75.80469513
1040.854004,75.82668304
1040.187012,75.83468628
1039.52002,75.85426331
1038.853027,75.8427887
1038.186035,75.87001038
1037.519043,75.88510132
1036.852051,75.89692688
1036.185059,75.90726471
1035.518066,75.92671967
1034.850952,75.93118286
1034.18396,75.94217682
1033.516968,75.95330811
1032.849976,75.97395325
1032.182983,75.97572327
1031.515991,75.99984741
1030.848999,76.01007843
1030.182007,76.03147888
1029.515015,76.03688049
1028.848022,76.04940796
1028.18103,76.06813049
1027.514038,76.08551025
1026.847046,76.08608246
1026.180054,76.09693146
1025.513062,76.11624146
1024.845947,76.12982178
1024.178955,76.16407776
1023.512024,76.15601349
1022.845032,76.1904068
1022.177979,76.18772888
1021.510986,76.1984787
1020.843994,76.21083069
1020.177002,76.23543549
1019.51001,76.23872375
1018.843018,76.2558136
1018.176025,76.26265717
1017.509033,76.27297974
1016.84198,76.29408264
1016.174988,76.32537842
1015.507996,76.31816864
1014.841003,76.33178711
1014.174011,76.35712433
1013.507019,76.37173462
1012.840027,76.37114716
1012.173035,76.39113617
1011.505981,76.39513397
1010.838989,76.43099213
1010.171997,76.43016815
1009.505005,76.45671082
1008.838013,76.47557068
1008.171021,76.49288177
1007.504028,76.496521
1006.837036,76.50622559
1006.169983,76.53662872
1005.502991,76.53874969
1004.835999,76.55799866
1004.169006,76.57728577
1003.502014,76.58881378
1002.835022,76.608284
1002.16803,76.62094116
1001.500977,76.63477325
1000.833984,76.64627075
1000.166992,76.6780777
999.5,76.66548157
998.8330078,76.70477295
998.1660156,76.69607544
997.4990234,76.73261261
996.8320313,76.73659515
996.164978,76.75830078
995.4979858,76.76924133
994.8309937,76.78701782
994.1640015,76.82450104
993.4970093,76.8265152
992.8300171,76.83847809
992.1630249,76.85783386
991.4960327,76.87265015
990.8289795,76.88398743
990.1619873,76.90435028
989.4949951,76.93160248
988.8280029,76.92150116
988.1610107,76.95491791
987.4940186,76.97776794
986.8270264,76.99147797
986.1600342,77.02780914
985.492981,77.02238464
984.8259888,77.0404129
984.1589966,77.06404114
983.4920044,77.08669281
982.8250122,77.07957458
982.15802,77.11820221
981.4910278,77.11638641
980.8240356,77.1391449
980.1569824,77.17229462
979.4899902,77.18148041
978.822998,77.18637085
978.1560059,77.19308472
977.4890137,77.22081757
976.8220215,77.24488068
976.1550293,77.25991821
975.4880371,77.28749847
974.8209839,77.29479218
974.1539917,77.31762695
973.4869995,77.33119965
972.8200073,77.35813141
972.1530151,77.36269379
971.4860229,77.38584137
970.8190308,77.40489197
970.1519775,77.41199493
969.4849854,77.4289093
968.8179932,77.45944214
968.151001,77.47825623
967.4840088,77.49681091
966.8170166,77.5139389
966.1500244,77.51732635
965.4830322,77.5634079
964.815979,77.56508636
964.1489868,77.59012604
963.4819946,77.60749817
962.8150024,77.63471222
962.1480103,77.63759613
961.4810181,77.66902924
960.8140259,77.67662811
960.1470337,77.70410919
959.4799805,77.71376038
958.8129883,77.74282837
958.1459961,77.76131439
957.4790039,77.77445984
956.8120117,77.79575348
956.1450195,77.81528473
955.4780273,77.81601715
954.8110352,77.83798218
954.1439819,77.86888123
953.4769897,77.87812805
952.8099976,77.90022278
952.1430054,77.91956329
951.4760132,77.96089935
950.809021,77.94957733
950.1420288,77.99968719
949.4750366,78.01293945
948.8079834,80.06620789
948.1409912,79.71443176
947.473999,79.87320709
946.8070068,79.5196991
946.1400146,79.18774414
945.4730225,78.58296967
944.8060303,78.77334595
944.1389771,79.00198364
943.4719849,77.74610901
942.8049927,79.83899689
942.1380005,78.23029327
941.4710083,79.82326508
940.8040161,77.9125061
940.1370239,78.76566315
939.4700317,78.99922943
938.8029785,78.35193634
938.1359863,79.08187866
937.4689941,79.05541992
936.802002,78.48435974
936.1350098,80.21729279
935.4680176,79.77522278
934.8010254,79.47525787
934.1340332,78.98284912
933.46698,80.92887878
932.7999878,78.47905731
932.1329956,80.45815277
931.4660034,79.19637299
930.7990112,79.69263458
930.132019,78.96247864
929.4650269,79.67196655
928.7980347,78.17906189
928.1309814,80.00845337
927.4639893,79.94471741
926.7969971,79.806633
926.1300049,79.97742462
925.4630127,79.04625702
924.7960205,79.80849457
924.1290283,81.72486115
923.4620361,80.60578156
922.7949829,79.07532501
922.1279907,79.42488098
921.4609985,80.00366211
920.7940063,78.8605957
920.1270142,79.56336975
919.460022,80.02922058
918.7930298,79.17090607
918.1259766,80.93612671
917.4589844,79.7770462
916.7919922,80.96549225
916.125,80.07186127
915.4580078,79.37751007
914.7910156,80.57583618
914.1240234,80.23065186
913.4570313,79.16980743
912.789978,80.80895996
912.1229858,79.49918365
911.4559937,79.50551605
910.7890015,80.67483521
910.1220093,79.87934113
909.4550171,80.19918823
908.7880249,80.48638916
908.1210327,80.05206299
907.4539795,80.79380035
906.7869873,80.35223389
906.1199951,80.15172577
905.4530029,80.78239441
904.7860107,81.25010681
904.1190186,80.42896271
903.4520264,80.85862732
902.7850342,80.23005676
902.117981,80.3635025
901.4509888,80.95345306
900.7839966,79.85500336
900.1170044,80.13486481
899.4500122,80.39457703
898.78302,81.07051086
898.1160278,80.22380066
897.4490356,80.84570313
896.7819824,80.6163559
896.1149902,80.56549072
895.447998,80.55951691
894.7810059,80.51428223
894.1140137,80.68974304
893.4470215,81.09194183
892.7800293,80.98665619
892.1130371,80.60686493
891.4459839,81.01322937
890.7789917,81.15046692
890.1119995,81.0749588
889.4450073,81.18638611
888.7780151,81.01957703
888.1110229,81.0512619
887.4440308,80.62908173
886.7769775,81.19083405
886.1099854,81.1643219
885.4429932,81.14380646
884.776001,81.04716492
884.1090088,81.59209442
883.4420166,81.18865204
882.7750244,81.3377533
882.1080322,81.42845154
881.440979,81.33322906
880.7739868,81.30319977
880.1069946,81.2571106
879.4400024,81.13913727
878.7730103,81.39025879
878.1060181,81.26851654
877.4390259,81.55361176
876.7720337,81.13891602
876.1049805,81.70327759
875.4379883,81.38379669
874.7709961,81.73750305
874.1040039,81.68930817
873.4370117,81.70845795
872.7700195,81.66131592
872.1030273,81.70222473
871.4360352,81.6957016
870.7689819,81.59552765
870.1019897,81.75112915
869.4349976,81.79317474
868.7680054,81.72091675
868.1010132,81.80348206
867.434021,81.73193359
866.7670288,81.70288086
866.1000366,81.6961441
865.4329834,81.92156982
864.7659912,81.71812439
864.098999,82.06834412
863.4320068,81.8974762
862.7650146,81.70069122
862.0980225,81.69139862
861.4310303,81.99450684
860.7639771,82.20093536
860.0969849,82.07255554
859.4299927,82.1529007
858.7630005,82.08388519
858.0960083,82.19449615
857.4290161,82.22290039
856.7620239,82.19140625
856.0950317,82.07674408
855.4279785,82.25146484
854.7609863,82.11911011
854.0939941,82.25498199
853.427002,82.2294693
852.7600098,82.37597656
852.0930176,82.29133606
851.4260254,82.31074524
850.7590332,82.35007477
850.09198,82.41068268
849.4249878,82.50559235
848.7579956,82.48060608
848.0910034,82.47623444
847.4240112,82.52674866
846.757019,82.5703125
846.0900269,82.58237457
845.4230347,82.46103668
844.7559814,82.70470428
844.0889893,82.5991745
843.4219971,82.68382263
842.7550049,82.6749115
842.0880127,82.71070099
841.4210205,82.71520996
840.7540283,82.77957153
840.0870361,82.78406525
839.4199829,82.86228943
838.7529907,82.74320221
838.0859985,82.85578156
837.4190063,82.80364227
836.7520142,82.85267639
836.085022,83.0278244
835.4180298,82.95196533
834.7510376,83.03897095
834.0839844,82.97187805
833.4169922,83.07467651
832.75,83.05544281
832.0830078,83.19434357
831.4160156,83.07067871
830.7490234,83.07125092
830.0820313,83.2082901
829.414978,83.19701385
828.7479858,83.16125488
828.0809937,83.29375458
827.4140015,83.30493164
826.7470093,83.28595734
826.0800171,83.2390976
825.4130249,83.30776215
824.7460327,83.34509277
824.0789795,83.40118408
823.4119873,83.39556122
822.7449951,83.46379089
822.0780029,83.48217773
821.4110107,83.44452667
820.7440186,83.50486755
820.0770264,83.49298096
819.4100342,83.53398895
818.742981,83.60812378
818.0759888,83.57416534
817.4089966,83.64035797
816.7420044,83.69114685
816.0750122,83.70942688
815.40802,83.75952911
814.7410278,83.67061615
814.0740356,83.79669952
813.4069824,83.75461578
812.7399902,83.75990295
812.072998,83.76981354
811.4060059,83.78062439
810.7390137,83.79776764
810.0720215,83.91790771
809.4050293,83.86698914
808.7380371,83.93360138
808.0709839,83.92866516
807.4039917,83.9773407
806.7369995,83.99371338
806.0700073,84.00879669
805.4030151,84.0625
804.7360229,84.07674408
804.0690308,84.08930206
803.4019775,84.11547852
802.7349854,84.11860657
802.0679932,84.12470245
801.401001,84.14313507
800.7340088,84.23931885
800.0670166,84.16651917
799.4000244,84.27271271
798.7329712,84.1268158
798.065979,84.13375854
797.3989868,84.22467041
796.7319946,84.190979
796.0649414,84.17656708
795.3979492,84.28069305
794.730957,84.20948029
794.0639648,84.24495697
793.3969727,84.21021271
792.7299805,84.31738281
792.0629883,84.26681519
791.3959961,84.34848022
790.7289429,84.38341522
790.0619507,84.42462921
789.3949585,84.41765594
788.7279663,84.45162201
788.0609741,84.29188538
787.3939819,84.44833374
786.7269897,84.44061279
786.0599976,84.44425201
785.3929443,84.47819519
784.7259521,84.51937103
784.05896,84.52174377
783.3919678,84.55432129
782.7249756,84.49793243
782.0579834,84.53870392
781.3909912,84.62874603
780.723999,84.47596741
780.0569458,84.63993073
779.3899536,84.64362335
778.7229614,84.58114624
778.0559692,84.60948181
777.3889771,84.61869812
776.7219849,84.60774231
776.0549927,84.67359924
775.3880005,84.69326019
774.7209473,84.74456024
774.0539551,84.59415436
773.3869629,84.66294098
772.7199707,84.71752167
772.0529785,84.76786041
771.3859863,84.70812988
770.7189941,84.70146942
770.0519409,84.69727325
769.3849487,84.72885132
768.7179565,84.64949799
768.0509644,84.70800781
767.3839722,84.72369385
766.71698,84.75440979
766.0499878,84.76604462
765.3829956,84.71549225
764.7159424,84.78704071
764.0489502,84.67934418
763.381958,84.73492432
762.7149658,84.74594116
762.0479736,84.67404938
761.3809814,84.70498657
760.7139893,84.74449158
760.0469971,84.66953278
759.3799438,84.73421478
758.7129517,84.67582703
758.0459595,84.75315094
757.3789673,84.7334137
756.7119751,84.65060425
756.0449829,84.62983704
755.3779907,84.69909668
754.7109985,84.68507385
754.0439453,84.60775757
753.3769531,84.6621933
752.7099609,84.58353424
752.0429688,84.65637207
751.3759766,84.66882324
750.7089844,84.56150055
750.0419922,84.61341095
749.375,84.59844971
748.7079468,84.53443909
748.0409546,84.57377625
747.3739624,84.57054901
746.7069702,84.44656372
746.039978,84.52940369
745.3729858,84.52749634
744.7059937,84.47210693
744.0390015,84.45314789
743.3719482,84.49557495
742.7049561,84.43572235
742.0379639,84.39213562
741.3709717,84.3530426
740.7039795,84.3272934
740.0369873,84.37974548
739.3699951,84.34724426
738.7029419,84.27164459
738.0359497,84.18502045
737.3689575,84.18788147
736.7019653,84.2478714
736.0349731,84.11585236
735.367981,84.09989166
734.7009888,84.12029266
734.0339966,84.01005554
733.3669434,84.0396347
732.6999512,84.00914764
732.032959,83.9384079
731.3659668,83.94235229
730.6989746,83.91630554
730.0319824,83.81438446
729.3649902,83.86743164
728.697998,83.79157257
728.0309448,83.7673645
727.3639526,83.71150208
726.6969604,83.75062561
726.0299683,83.5753479
725.3629761,83.58441162
724.6959839,83.54267883
724.0289917,83.51643372
723.3619995,83.49401093
722.6949463,83.39850616
722.0279541,83.31446838
721.3609619,83.26755524
720.6939697,83.24847412
720.0269775,83.22154999
719.3599854,83.17376709
718.6929932,83.10180664
718.026001,83.00707245
717.3589478,82.96472931
716.6919556,82.98264313
716.0249634,82.86884308
715.3579712,82.87772369
714.690979,82.74398041
714.0239868,82.71638489
713.3569946,82.60713959
712.6899414,82.5901413
712.0229492,82.49396515
711.355957,82.42853546
710.6889648,82.33881378
710.0219727,82.31548309
709.3549805,82.2574234
708.6879883,82.2147522
708.0209961,82.15534973
707.3539429,81.99279785
706.6869507,81.97437286
706.0199585,81.8767395
705.3529663,81.84027863
704.6859741,81.75637817
704.0189819,81.69682312
703.3519897,81.59767151
702.6849976,81.51268005
702.0179443,81.42403412
701.3509521,81.37070465
700.68396,81.29086304
700.0169678,81.22016144
699.3499756,81.11136627
698.6829834,81.03610992
698.0159912,80.93813324
697.348999,80.82767487
696.6819458,80.78074646
696.0149536,80.65164185
695.3479614,80.58472443
694.6809692,80.45468903
694.0139771,80.41661072
693.3469849,80.2868576
692.6799927,80.23565674
692.0130005,80.10172272
691.3459473,80.05072021
690.6789551,79.93255615
690.0119629,79.84918976
689.3449707,79.72941589
688.6779785,79.61562347
688.0109863,79.51953125
687.3439941,79.45509338
686.677002,79.3214035
686.0099487,79.2024765
685.3429565,79.11484528
684.6759644,78.96748352
684.0089722,78.87705994
683.34198,78.82711029
682.6749878,78.66452789
682.0079956,78.5621109
681.3409424,78.41917419
680.6739502,78.33461761
680.006958,78.27016449
679.3399658,78.09145355
678.6729736,77.98926544
678.0059814,77.86693573
677.3389893,77.77609253
676.6719971,77.64829254
676.0049438,77.49034119
675.3379517,77.36769104
674.6709595,77.24900055
674.0039673,77.14420319
673.3369751,77.01521301
672.6699829,76.92024231
672.0029907,76.74536896
671.3359985,76.61116791
670.6689453,76.49661255
670.0019531,76.37230682
669.3349609,76.23149872
668.6679688,76.12037659
668.0009766,75.98240662
667.3339844,75.83303833
666.6669922,75.69256592
666,75.54178619
665.3329468,75.42385864
664.6659546,75.28791809
663.9989624,75.1622467
663.3319702,74.99077606
662.664978,74.87638092
661.9979858,74.7311554
661.3309937,74.5745697
660.6640015,74.4394455
659.9969482,74.31143951
659.3299561,74.15371704
658.6629639,74.01644897
657.9959717,73.88442993
657.3289795,73.75086975
656.6619873,73.60504913
655.9949951,73.45284271
655.3279419,73.23560333
654.6609497,73.13397217
653.9939575,72.96894073
653.3269653,72.84332275
652.6599731,72.70330811
651.992981,72.52062225
651.3259888,72.37740326
650.6589966,72.2312088
649.9919434,72.06443787
649.3249512,71.9124527
648.657959,71.78827667
647.9909668,71.60586548
647.3239746,71.43724823
646.6569824,71.27520752
645.9899902,71.12272644
645.322998,71.00330353
644.6559448,70.85618591
643.9889526,70.68274689
643.3219604,70.52537537
642.6549683,70.36481476
641.9879761,70.21521759
641.3209839,70.05319214
640.6539917,69.87591553
639.9869995,69.75353241
639.3199463,69.57853699
638.6529541,69.40466309
637.9859619,69.25484467
637.3189697,69.11269379
636.6519775,68.96315002
635.9849854,68.78934479
635.3179932,68.64067078
634.651001,68.46327209
633.9839478,68.31298065
633.3169556,68.15406799
632.6499634,67.98432159
631.9829712,67.84520721
631.315979,67.6856308
630.6489868,67.5355072
629.9819946,67.35446167
629.3150024,67.20955658
628.6479492,67.04734802
627.980957,66.87400055
627.3139648,66.74225616
626.6469727,66.54901123
625.9799805,66.39913177
625.3129883,66.23713684
624.6459961,66.09468079
623.9789429,65.91977692
623.3119507,65.77449799
622.6449585,65.60832214
621.9779663,65.47303009
621.3109741,65.31084442
620.6439819,65.15361023
619.9769897,64.99629974
619.3099976,64.86927032
618.6429443,64.7225647
617.9759521,64.53813171
617.30896,64.40370178
616.6419678,64.23271179
615.9749756,64.07843018
615.3079834,63.90666962
614.6409912,63.78363419
613.973999,63.63937378
613.3069458,63.47128296
612.6399536,63.32803345
611.9729614,63.14326096
611.3059692,63.00294495
610.6389771,62.86379623
609.9719849,62.68634033
609.3049927,62.53691864
608.6380005,62.44113541
607.9709473,62.25195694
607.3039551,62.08821106
606.6369629,61.9383316
605.9699707,61.79354095
605.3029785,61.62503815
604.6359863,61.50845718
603.9689941,61.307621
603.302002,61.16254807
602.6349487,61.02427673
601.9679565,60.88946533
601.3009644,60.70969009
600.6339722,60.5820961
599.96698,60.42306519
599.2999878,60.27648544
598.6329956,60.12857437
597.9659424,59.98638916
597.2989502,59.83742905
596.631958,59.69421387
595.9649658,59.54085159
595.2979736,59.39553452
594.6309814,59.24449539
593.9639893,59.05746841
593.2969971,58.95075989
592.6299438,58.80681992
591.9629517,58.66435242
591.2959595,58.49632645
590.6289673,58.3783989
589.9619751,58.27292633
589.2949829,58.11253738
588.6279907,57.9438324
587.9609985,57.82352066
587.2939453,57.67444992
586.6269531,57.53502274
585.9599609,57.41664886
585.2929688,57.2256813
584.6259766,57.1391983
583.9589844,57.01329803
583.2919922,56.85918808
582.625,56.72445297
581.9579468,56.58809662
581.2909546,56.46914673
580.6239624,56.33044815
579.9569702,56.19560623
579.289978,56.07098389
578.6229858,55.91366959
577.9559937,55.84951019
577.2890015,55.69665527
576.6219482,55.57648468
575.9549561,55.42100143
575.2879639,55.30984879
574.6209717,55.19591141
573.9539795,55.0770874
573.2869873,54.90547943
572.6199951,54.79428864
571.9530029,54.69371796
571.2859497,54.55025864
570.6189575,54.42120361
569.9519653,54.31361389
569.2849731,54.19467545
568.617981,54.09824753
567.9509888,53.93497849
567.2839966,53.82598114
566.6169434,53.69631195
565.9499512,53.58860397
565.282959,53.45546722
564.6159668,53.33908081
563.9489746,53.20531082
563.2819824,53.07997894
562.6149902,52.99572372
561.947998,52.87401199
561.2809448,52.76152039
560.6139526,52.63122177
559.9469604,52.5266304
559.2799683,52.40424347
558.6129761,52.27882767
557.9459839,52.19533539
557.2789917,52.0579567
556.6119995,51.94635391
555.9449463,51.81133652
555.2779541,51.71112442
554.6109619,51.6218605
553.9439697,51.49233246
553.2769775,51.40480804
552.6099854,51.24397278
551.9429932,51.11438751
551.276001,51.02415085
550.6089478,50.91368484
549.9419556,50.82369995
549.2749634,50.6742363
548.6079712,50.55844879
547.940979,50.46637726
547.2739868,50.35680389
546.6069946,50.24057007
545.9400024,50.12443542
545.2729492,50.01051331
544.605957,49.9056015
543.9389648,49.81210709
543.2719727,49.66611099
542.6049805,49.5819931
541.9379883,49.42948532
541.2709961,49.31440353
540.6039429,49.20820999
539.9369507,49.08708954
539.2699585,48.9786911
538.6029663,48.85232925
537.9359741,48.75684738
537.2689819,48.61604309
536.6019897,48.51176071
535.9349976,48.38154221
535.2679443,48.26220703
534.6009521,48.12940979
533.93396,48.02876663
533.2669678,47.86693573
532.5999756,47.80459595
531.9329834,47.64862823
531.2659912,47.50535202
530.598999,47.38117981
529.9319458,47.2230835
529.2649536,47.10582352
528.5979614,46.97496414
527.9309692,46.83646774
527.2639771,46.6882782
526.5969849,46.54467392
525.9299927,46.41446686
525.2630005,46.26704407
524.5959473,46.1232872
523.9289551,45.96957016
523.2619629,45.82326889
522.5949707,45.67081451
521.9279785,45.47231674
521.2609863,45.31427002
520.5939941,45.16433716
519.927002,45.01053238
519.2599487,44.81561661
518.5929565,44.6388855
517.9259644,44.4744072
517.2589722,44.27117157
516.59198,44.07383347
515.9249878,43.87410736
515.2579956,43.65153503
514.5910034,43.47000122
513.9239502,43.25240707
513.256958,43.01477432
512.5899658,42.8103981
511.9229736,42.58519363
511.2559814,42.33993149
510.5889587,42.09923553
509.9219666,41.86193848
509.2549744,41.57728577
508.5879822,41.32983398
507.9209595,41.06746292
507.2539673,40.79763031
506.5869751,40.5148735
505.9199829,40.21198654
505.2529602,39.94464874
504.585968,39.60451889
503.9189758,39.29535294
503.2519836,39.00329208
502.5849609,38.66616058
501.9179688,38.32769394
501.2509766,38.00229263
500.5839844,37.66251373
499.9169617,37.32473373
499.2499695,36.94823837
498.5829773,36.60608673
497.9159851,36.25162125
497.2489624,35.8629837
496.5819702,35.50734711
495.914978,35.14115524
495.2479858,34.76688385
494.5809631,34.38987732
493.9139709,34.00942993
493.2469788,33.63521957
492.5799866,33.21101761
491.9129639,32.82956696
491.2459717,32.46344376
490.5789795,32.060112
489.9119873,31.66868401
489.2449646,31.2823925
488.5779724,30.89452362
487.9109802,30.5112114
487.243988,30.11639786
486.5769653,29.74328995
485.9099731,29.3413372
485.242981,28.94425774
484.5759583,28.56399155
483.9089661,28.18410683
483.2419739,27.78413963
482.5749817,27.38718605
481.907959,26.99157333
481.2409668,26.60945892
480.5739746,26.25153351
479.9069824,25.86825562
479.2399597,25.45856476
478.5729675,25.11100388
477.9059753,24.74315834
477.2389832,24.35373878
476.5719604,23.98488426
475.9049683,23.61499977
475.2379761,23.24940491
474.5709839,22.88340569
473.9039612,22.52696419
473.236969,22.16505623
472.5699768,21.80213547
471.9029846,21.44882011
471.2359619,21.0976181
470.5689697,20.74750519
469.9019775,20.3990593
469.2349854,20.04528236
468.5679626,19.70767784
467.9009705,19.36632729
467.2339783,19.03706169
466.5669861,18.71891403
465.8999634,18.37685013
465.2329712,18.05014229
464.565979,17.72746086
463.8989868,17.4087944
463.2319641,17.09138107
462.5649719,16.78110886
461.8979797,16.47188568
461.2309875,16.17615509
460.5639648,15.86307144
459.8969727,15.56781578
459.2299805,15.26593113
458.5629883,14.99523926
457.8959656,14.71477127
457.2289734,14.43881416
456.5619812,14.16413498
455.8949585,13.89753628
455.2279663,13.63020229
454.5609741,13.36555481
453.8939819,13.10955906
453.2269592,12.86654472
452.559967,12.60812569
451.8929749,12.36244774
451.2259827,12.1320467
450.55896,11.88695621
449.8919678,11.66593552
449.2249756,11.43359661
448.5579834,11.2053318
447.8909607,10.99881935
447.2239685,10.78307724
446.5569763,10.56796265
445.8899841,10.36521149
445.2229614,10.16889191
444.5559692,9.974144936
443.8889771,9.76379776
443.2219849,9.570753098
442.5549622,9.383751869
441.88797,9.200619698
441.2209778,9.010345459
440.5539856,8.836886406
439.8869629,8.657180786
439.2199707,8.483041763
438.5529785,8.309685707
437.8859863,8.146121979
437.2189636,7.97623682
436.5519714,7.817819595
435.8849792,7.653726101
435.2179871,7.493644238
434.5509644,7.349690914
433.8839722,7.197972298
433.21698,7.052949905
432.5499878,6.906415462
431.8829651,6.773027897
431.2159729,6.63402462
430.5489807,6.491916656
429.8819885,6.356760979
429.2149658,6.222948074
428.5479736,6.101719379
427.8809814,5.972919464
427.2139587,5.859983921
426.5469666,5.738415718
425.8799744,5.621650219
425.2129822,5.508752823
424.5459595,5.400230885
423.8789673,5.279292583
423.2119751,5.179283619
422.5449829,5.07749176
421.8779602,4.969883919
421.210968,4.869038105
420.5439758,4.771175385
419.8769836,4.66187191
419.2099609,4.569155693
418.5429688,4.476591587
417.8759766,4.379056454
417.2089844,4.291007042
416.5419617,4.1994133
415.8749695,4.100485802
415.2079773,4.013329983
414.5409851,3.938683033
413.8739624,3.848875284
413.2069702,3.760622501
412.539978,3.676771641
411.8729858,3.595585108
411.2059631,3.525723934
410.5389709,3.44325757
409.8719788,3.366621256
409.2049866,3.290648699
408.5379639,3.205331087
407.8709717,3.139694691
407.2039795,3.07388854
406.5369873,2.99012804
405.8699646,2.927725077
405.2029724,2.846449137
404.5359802,2.782743692
403.868988,2.714346647
403.2019653,2.651908398
402.5349731,2.590526342
401.867981,2.522729635
401.2009888,2.454822779
400.5339661,2.402606964
399.8669739,2.336346149
399.1999817,2.274140835
398.532959,2.214219093
397.8659668,2.160084724
397.1989746,2.088988066
396.5319824,2.042765617
395.8649597,1.979864001
395.1979675,1.933226705
394.5309753,1.877184987
393.8639832,1.829257369
393.1969604,1.761677623
392.5299683,1.721366882
391.8629761,1.670425534
391.1959839,1.622153282
390.5289612,1.576925755
389.861969,1.532858968
389.1949768,1.48882544
388.5279846,1.435145855
387.8609619,1.393223763
387.1939697,1.354588151
386.5269775,1.308558941
385.8599854,1.267175913
385.1929626,1.234251857
384.5259705,1.189465642
383.8589783,1.144291878
383.1919861,1.120015383
382.5249634,1.085345626
381.8579712,1.05290091
381.190979,1.018764973
380.5239868,0.996524811
379.8569641,0.958828986
379.1899719,0.920963168
378.5229797,0.896674871
377.8559875,0.866418123
377.1889648,0.845406652
376.5219727,0.821675658
375.8549805,0.80690223
375.1879883,0.765255332
374.5209656,0.753999531
373.8539734,0.729429126
373.1869812,0.710502803
372.519989,0.689134955
371.8529663,0.67571348
371.1859741,0.652397096
370.5189819,0.62948066
369.8519592,0.615520656
369.184967,0.597895086
368.5179749,0.585293829
367.8509827,0.574757993
367.18396,0.546180487
366.5169678,0.540579021
365.8499756,0.525578976
365.1829834,0.516345918
364.5159607,0.514035046
363.8489685,0.491102397
363.1819763,0.471978217
362.5149841,0.471606046
361.8479614,0.465340406
361.1809692,0.455928028
360.5139771,0.444524825
359.8469849,0.430948973
359.1799622,0.431580663
358.51297,0.420084685
357.8459778,0.423351616
357.1789856,0.401658744
356.5119629,0.398368299
355.8449707,0.393966347
355.1779785,0.390313506
354.5109863,0.371627331
353.8439636,0.382024705
353.1769714,0.378267527
352.5099792,0.365895838
351.8429871,0.356730253
351.1759644,0.359125137
350.5089722,0.362299055
349.84198,0.344099134
349.1749878,0.353643954
348.5079651,0.348398149
347.8409729,0.340433329
347.1739807,0.330534369
346.5069885,0.335031718
345.8399658,0.336578369
345.1729736,0.319503576
344.5059814,0.321445018
343.8389893,0.323633343
343.1719666,0.30882439
342.5049744,0.317578763
341.8379822,0.319606751
341.1709595,0.313094735
340.5039673,0.29674542
339.8369751,0.304510921
339.1699829,0.300645888
338.5029602,0.302402228
337.835968,0.294774234
337.1689758,0.292593628
336.5019836,0.281537145
335.8349609,0.287952453
335.1679688,0.290708005
334.5009766,0.280020863
333.8339844,0.269809574
333.1669617,0.276657522
332.4999695,0.271438211
331.8329773,0.275396943
331.1659851,0.263982147
330.4989624,0.245348901
329.8319702,0.252945721
329.164978,0.250294358
328.4979858,0.258122623
327.8309631,0.239441991
327.1639709,0.231834784
326.4969788,0.223836482
325.8299866,0.228532523
325.1629639,0.225726008
324.4959717,0.211395085
323.8289795,0.212286875
323.1619873,0.211800888
322.4949646,0.200283736
321.8279724,0.188318193
321.1609802,0.190250248
320.493988,0.18591629
319.8269653,0.182790652
319.1599731,0.172163382
318.492981,0.160499618
317.8259888,0.166334182
317.1589661,0.14365302
316.4919739,0.151664585
315.8249817,0.131410644
315.1579895,0.132719681
314.4909668,0.130759105
313.8239746,0.112956137
313.1569824,0.113928549
312.4899597,0.104870357
311.8229675,0.103099771
311.1559753,0.093629189
310.4889832,0.08551988
309.8219604,0.09147314
309.1549683,0.074421309
308.4879761,0.05973139
307.8209839,0.072738014
307.1539612,0.065914318
306.486969,0.054993916
305.8199768,0.047313459
305.1529846,0.044133235
304.4859619,0.049316674
303.8189697,0.039674833
303.1519775,0.031559546
302.4849854,0.031590603
301.8179626,0.024920857
301.1509705,0.029546637
300.4839783,0.020464469
299.8169861,0.011697456
299.1499634,0.017341509
298.4829712,0.016047768
297.815979,0.017537398
297.1489868,0.01991651
296.4819641,0.013332876
295.8149719,0.008134378
295.1479797,0.011185349
294.4809875,0.006437241
293.8139648,0.001556224
293.1469727,-0.0037837
292.4799805,0.004649777
291.8129883,0.003120997
291.1459656,0.006031184
290.4789734,0.015322781
289.8119812,-0.001443734
289.144989,0.00202437
288.4779663,0.004636761
287.8109741,0.001657342
287.1439819,0.006052024
286.4769897,-0.003934161
285.809967,0.005912089
285.1429749,0.007394524
284.4759827,0.007434809
283.80896,0.001792282
283.1419678,0.00810598
282.4749756,-0.000661096
281.8079834,-0.000491649
281.1409607,0.001731311
280.4739685,0.0056289
279.8069763,0.003871463
279.1399841,0.004192501
278.4729614,-0.002128641
277.8059692,0.005646163
277.1389771,0.002258109
276.4719849,0.007574184
275.8049622,0.013900876
275.13797,0.007403235
274.4709778,0.006237662
273.8039856,0.008427346
273.1369629,0.005352214
272.4699707,0.009175963
271.8029785,-0.001307415
271.1359863,0.01007891
270.4689636,0.013598039
269.8019714,0.009137799
269.1349792,0.008786682
268.4679871,0.008456216
267.8009644,0.009267972
267.1339722,0.010432329
266.46698,-0.000441316
265.7999878,0.012573693
265.1329651,0.010200975
264.4659729,0.004324039
263.7989807,0.012244595
263.1319885,0.007401126
262.4649658,0.009587882
261.7979736,0.00706223
261.1309814,0.013200043
260.4639893,0.005799524
259.7969666,0.010797909
259.1299744,0.010257915
258.4629822,0.013405708
257.7959595,0.009875052
257.1289673,0.011850985
256.4619751,0.017981494
255.7949677,0.014998611
255.1279755,0.014283466
254.460968,0.016334858
253.7939758,0.013571726
253.1269684,0.022657856
252.4599762,0.014940778
251.7929688,0.018033935
251.1259766,0.018294418
250.4589691,0.029963318
249.7919769,0.024214419
,
,
Cu7PS6_T,
Cu7PS6_T,
Collection Time: 29-Oct-24 1:34:54 PM,
Operator Name  :,
Scan Version 6.5.0.1628,
Parameter List :,
Instrument  Cary 7000,
Instrument Version  3.07,
Method Log     :,
Method Name    : D:\Methods\DRA_T_v2.MSW,
Date/Time stamp: 18-Oct-24 12:17:05 PM,
Method Modifications:,
ConcentrationReportSelected Changed: 04-Oct-24 11:12:40 AM, Old:Choice 0
ConcentrationReportSelected Changed: 04-Oct-24 11:12:40 AM, Old:ON
MCAReportSelected Changed: 04-Oct-24 11:12:40 AM, Old:Choice 0
MCAReportSelected Changed: 04-Oct-24 11:12:40 AM, Old:ON
NIR interval Changed: 04-Oct-24 11:14:20 AM, Old:   -0.020
X Start nm Changed: 04-Oct-24 11:19:08 AM, Old:800.000
UVVIS Scan Rate nm Changed: 04-Oct-24 11:19:08 AM, Old:  602.007
NIR Scan Rate nm Changed: 04-Oct-24 11:19:08 AM, Old:    0.004
SBW Changed: 04-Oct-24 11:19:08 AM, Old:2.000
Common Slit Width Changed: 04-Oct-24 11:19:08 AM, Old:2.000
Slit Height Changed: 04-Oct-24 11:19:08 AM, Old:Full
Source changeover Changed: 04-Oct-24 11:19:08 AM, Old:   350.00
Detector changeover Changed: 04-Oct-24 11:19:08 AM, Old:   800.00
Grating changeover Changed: 04-Oct-24 11:19:08 AM, Old:   800.00
Baseline Correction Changed: 04-Oct-24 11:19:08 AM, Old:0
AVASRA On Changed: 04-Oct-24 11:19:08 AM, Old:OFF
UMA Collect Grid Changed: 04-Oct-24 11:19:08 AM, Old:
UMA Sample Name Changed: 04-Oct-24 11:19:08 AM, Old:Sample Name
Sipper Type Changed: 04-Oct-24 11:19:08 AM, Old:Internal RSA
Y mode Changed: 04-Oct-24 11:19:10 AM, Old:Abs
Slit Height Changed: 04-Oct-24 11:19:11 AM, Old:Full
Manual Polarizer Angle Select Changed: 04-Oct-24 11:33:13 AM, Old:S (0 Degrees)
UMA Collect Grid Changed: 04-Oct-24 11:33:13 AM, Old:mittma_0018_Cu_B 0.00  180.00{None{0.00{ 180.00{}
Saved as D:\Methods\RTR45-NoDetectorSlit.MSWOpened D:\Methods\RTR45-NoDetectorSlit.MSW,
X Stop nm Changed: 10-Oct-24 4:17:25 PM, Old:200.000
AVASRA On Changed: 10-Oct-24 4:17:25 PM, Old:ON
Y max Changed: 10-Oct-24 4:26:10 PM, Old:     1.00
Slit Height Changed: 10-Oct-24 4:26:10 PM, Old:Reduced
Detector changeover Changed: 10-Oct-24 4:26:10 PM, Old:  1050.00
Grating changeover Changed: 10-Oct-24 4:26:10 PM, Old:   720.00
Slit Height Changed: 10-Oct-24 4:26:13 PM, Old:Reduced
Saved as D:\Methods\DRA_T.MSWSaved as D:\Methods\glass.BSWSaved as D:\Data\phosphosulfides\eugbe\mittma_0018_Cu_B_DRA\glass.BSWY mode Changed: 10-Oct-24 4:49:02 PM, Old:%T
Y min Changed: 10-Oct-24 4:49:02 PM, Old:     0.00
Y max Changed: 10-Oct-24 4:49:02 PM, Old:   100.00
Slit Height Changed: 10-Oct-24 5:10:47 PM, Old:Full
Slit Height Changed: 10-Oct-24 5:10:49 PM, Old:Full
Baseline Correction Changed: 10-Oct-24 5:37:13 PM, Old:1
Y mode Changed: 10-Oct-24 5:55:42 PM, Old:%R
Y min Changed: 10-Oct-24 5:55:42 PM, Old:    -5.00
Y max Changed: 10-Oct-24 5:55:42 PM, Old:   105.00
X Start nm Changed: 10-Oct-24 6:17:42 PM, Old:1200.000
X Stop nm Changed: 10-Oct-24 6:17:42 PM, Old:280.000
Common Interval nm Changed: 10-Oct-24 6:17:42 PM, Old:    1.000
Detector changeover Changed: 10-Oct-24 6:17:42 PM, Old:   800.00
Saved as D:\Methods\DRA_T.MSWOpened D:\Methods\DRA_T.MSW,
X Start nm Changed: 18-Oct-24 12:03:10 PM, Old:1800.000
Common Interval nm Changed: 18-Oct-24 12:03:10 PM, Old:    0.833
Detector changeover Changed: 18-Oct-24 12:03:10 PM, Old:   950.00
Saved as D:\Methods\DRA_T_v2.MSWDetector changeover Changed: 18-Oct-24 12:16:37 PM, Old:  1000.00
Saved as D:\Methods\DRA_T_v2.MSW,
Opened D:\Methods\DRA_T_v2.MSW,
X Stop nm Changed: 29-Oct-24 1:16:25 PM, Old:200.000
End Method Modifications,
<Current Wavelength> ,249.725
<SBW (nm)> ,4
<Energy> ,181.97
<Slit Height> , Reduced
